#K-Path     Energy     s    py    pz    px    dxy    dyz    dz2    dxz    dx2-y2    tot
# Band-Index:    1
   0.000   -10.538  0.000  0.000  0.000  0.000  0.000  0.000  0.000  0.000  0.000  0.000
   0.020   -10.540 -0.013  0.000  0.000  0.000  0.000  0.000  0.000  0.000  0.000 -0.013
   0.040   -10.547 -0.028  0.000  0.000  0.000  0.000  0.000  0.000  0.000  0.000 -0.028
   0.060   -10.558 -0.046  0.000  0.000  0.000  0.000  0.000  0.000  0.000  0.000 -0.046
   0.079   -10.573 -0.067  0.000  0.000  0.000  0.000  0.000  0.000  0.000  0.000 -0.068
   0.099   -10.594 -0.094  0.000  0.000  0.000  0.000  0.000  0.000  0.000  0.000 -0.094
   0.119   -10.619 -0.126  0.000 -0.001  0.000  0.000  0.000  0.000  0.000  0.000 -0.127
   0.139   -10.648 -0.166 -0.001 -0.001  0.000  0.000  0.000  0.000  0.000  0.000 -0.167
   0.159   -10.681 -0.214 -0.001 -0.001  0.000  0.000  0.000  0.000  0.000  0.000 -0.216
   0.179   -10.719 -0.270 -0.001 -0.002  0.000  0.000  0.000  0.000  0.000  0.000 -0.274
   0.198   -10.760 -0.333 -0.002 -0.002 -0.001  0.000  0.000  0.000  0.000  0.000 -0.338
   0.218   -10.803 -0.398 -0.002 -0.002 -0.001  0.000  0.000  0.000  0.000  0.000 -0.404
   0.238   -10.850 -0.457 -0.003 -0.003 -0.001  0.000  0.000  0.000  0.000  0.000 -0.464
   0.258   -10.898 -0.504 -0.003 -0.003 -0.001  0.000  0.000  0.000  0.000  0.000 -0.513
   0.278   -10.949 -0.536 -0.004 -0.004 -0.001  0.000  0.000  0.000  0.000  0.000 -0.545
   0.298   -11.001 -0.553 -0.004 -0.004 -0.001  0.000  0.000  0.000  0.000  0.000 -0.564
   0.318   -11.054 -0.560 -0.005 -0.005 -0.002  0.000  0.000  0.000  0.000  0.000 -0.572
   0.337   -11.107 -0.560 -0.005 -0.005 -0.002  0.000  0.000  0.000  0.000  0.000 -0.572
   0.357   -11.161 -0.557 -0.005 -0.005 -0.002  0.000  0.000  0.000  0.000  0.000 -0.569
   0.377   -11.215 -0.551 -0.005 -0.005 -0.002  0.000  0.000  0.000  0.000  0.000 -0.564
   0.397   -11.269 -0.545 -0.005 -0.005 -0.002  0.000  0.000  0.000  0.000  0.000 -0.558
   0.417   -11.323 -0.538 -0.005 -0.006 -0.002  0.000  0.000  0.000  0.000  0.000 -0.551
   0.437   -11.375 -0.532 -0.005 -0.006 -0.002  0.000  0.000  0.000  0.000  0.000 -0.545
   0.456   -11.428 -0.526 -0.005 -0.006 -0.001  0.000  0.000  0.000  0.000  0.000 -0.539
   0.476   -11.479 -0.521 -0.005 -0.006 -0.001  0.000  0.000  0.000  0.000  0.000 -0.534
   0.496   -11.529 -0.516 -0.005 -0.006 -0.001  0.000  0.000  0.000  0.000  0.000 -0.529
   0.516   -11.578 -0.511 -0.005 -0.006 -0.001  0.000  0.000  0.000  0.000  0.000 -0.524
   0.536   -11.625 -0.507 -0.004 -0.007 -0.001  0.000  0.000  0.000  0.000  0.000 -0.520
   0.556   -11.671 -0.504 -0.004 -0.007 -0.001  0.000  0.000  0.000  0.000  0.000 -0.516
   0.575   -11.715 -0.500 -0.004 -0.007 -0.001  0.000  0.000  0.000  0.000  0.000 -0.513
   0.595   -11.758 -0.497 -0.004 -0.007 -0.001  0.000  0.000  0.000  0.000  0.000 -0.509
   0.615   -11.799 -0.495 -0.003 -0.007 -0.001  0.000  0.000  0.000  0.000  0.000 -0.506
   0.635   -11.838 -0.492 -0.003 -0.007 -0.001  0.000  0.000  0.000  0.000  0.000 -0.504
   0.655   -11.875 -0.490 -0.003 -0.007 -0.001  0.000  0.000  0.000  0.000  0.000 -0.501
   0.675   -11.910 -0.488 -0.003 -0.007 -0.001  0.000  0.000  0.000  0.000  0.000 -0.499
   0.695   -11.944 -0.486 -0.002 -0.008 -0.001  0.000  0.000  0.000  0.000  0.000 -0.497
   0.714   -11.975 -0.485 -0.002 -0.008  0.000  0.000  0.000  0.000  0.000  0.000 -0.495
   0.734   -12.003 -0.483 -0.002 -0.008  0.000  0.000  0.000  0.000  0.000  0.000 -0.493
   0.754   -12.030 -0.482 -0.002 -0.008  0.000  0.000  0.000  0.000  0.000  0.000 -0.492
   0.774   -12.055 -0.481 -0.001 -0.008  0.000  0.000  0.000  0.000  0.000  0.000 -0.490
   0.794   -12.077 -0.480 -0.001 -0.008  0.000  0.000  0.000  0.000  0.000  0.000 -0.489
   0.814   -12.097 -0.479 -0.001 -0.008  0.000  0.000  0.000  0.000  0.000  0.000 -0.488
   0.833   -12.114 -0.478 -0.001 -0.008  0.000  0.000  0.000  0.000  0.000  0.000 -0.487
   0.853   -12.129 -0.477 -0.001 -0.008  0.000  0.000  0.000  0.000  0.000  0.000 -0.486
   0.873   -12.142 -0.477  0.000 -0.008  0.000  0.000  0.000  0.000  0.000  0.000 -0.485
   0.893   -12.153 -0.476  0.000 -0.008  0.000  0.000  0.000  0.000  0.000  0.000 -0.485
   0.913   -12.161 -0.476  0.000 -0.008  0.000  0.000  0.000  0.000  0.000  0.000 -0.484
   0.933   -12.167 -0.475  0.000 -0.008  0.000  0.000  0.000  0.000  0.000  0.000 -0.484
   0.953   -12.170 -0.475  0.000 -0.008  0.000  0.000  0.000  0.000  0.000  0.000 -0.483
   0.972   -12.171  0.206  0.000  0.004  0.000  0.000  0.000  0.000  0.000  0.000  0.210
   0.972   -12.171  0.206  0.000  0.004  0.000  0.000  0.000  0.000  0.000  0.000  0.210
   0.990   -12.170 -0.271  0.000 -0.005  0.000  0.000  0.000  0.000  0.000  0.000 -0.276
   1.007   -12.168 -0.273  0.000 -0.005  0.000  0.000  0.000  0.000  0.000  0.000 -0.278
   1.024   -12.164 -0.274  0.000 -0.005  0.000  0.000  0.000  0.000  0.000  0.000 -0.279
   1.041   -12.158 -0.274  0.000 -0.005  0.000  0.000  0.000  0.000  0.000  0.000 -0.279
   1.058   -12.150 -0.275  0.000 -0.005  0.000  0.000  0.000  0.000  0.000  0.000 -0.280
   1.075   -12.140 -0.275  0.000 -0.005  0.000  0.000  0.000  0.000  0.000  0.000 -0.280
   1.093   -12.129 -0.275  0.000 -0.005  0.000  0.000  0.000  0.000  0.000  0.000 -0.280
   1.110   -12.115 -0.276  0.000 -0.005  0.000  0.000  0.000  0.000  0.000  0.000 -0.281
   1.127   -12.100 -0.276  0.000 -0.005  0.000  0.000  0.000  0.000  0.000  0.000 -0.281
   1.144   -12.084 -0.277  0.000 -0.005  0.000  0.000  0.000  0.000  0.000  0.000 -0.282
   1.161   -12.065 -0.277  0.000 -0.005  0.000  0.000  0.000  0.000  0.000  0.000 -0.283
   1.179   -12.045 -0.278  0.000 -0.005 -0.001  0.000  0.000  0.000  0.000  0.000 -0.283
   1.196   -12.023 -0.278  0.000 -0.005 -0.001  0.000  0.000  0.000  0.000  0.000 -0.284
   1.213   -12.000 -0.279  0.000 -0.004 -0.001  0.000  0.000  0.000  0.000  0.000 -0.285
   1.230   -11.975 -0.280 -0.001 -0.004 -0.001  0.000  0.000  0.000  0.000  0.000 -0.286
   1.247   -11.948 -0.281 -0.001 -0.004 -0.001  0.000  0.000  0.000  0.000  0.000 -0.287
   1.264   -11.920 -0.281 -0.001 -0.004 -0.001  0.000  0.000  0.000  0.000  0.000 -0.288
   1.282   -11.890 -0.282 -0.001 -0.004 -0.001  0.000  0.000  0.000  0.000  0.000 -0.289
   1.299   -11.859 -0.284 -0.001 -0.004 -0.001  0.000  0.000  0.000  0.000  0.000 -0.290
   1.316   -11.826 -0.285 -0.001 -0.004 -0.001  0.000  0.000  0.000  0.000  0.000 -0.291
   1.333   -11.792 -0.286 -0.001 -0.004 -0.002  0.000  0.000  0.000  0.000  0.000 -0.293
   1.350   -11.757 -0.287 -0.001 -0.004 -0.002  0.000  0.000  0.000  0.000  0.000 -0.294
   1.368   -11.720 -0.289 -0.001 -0.004 -0.002  0.000  0.000  0.000  0.000  0.000 -0.296
   1.385   -11.682 -0.291 -0.001 -0.004 -0.002  0.000  0.000  0.000  0.000  0.000 -0.298
   1.402   -11.643 -0.292 -0.001 -0.004 -0.002  0.000  0.000  0.000  0.000  0.000 -0.300
   1.419   -11.603 -0.294 -0.001 -0.004 -0.002  0.000  0.000  0.000  0.000  0.000 -0.302
   1.436   -11.562 -0.296 -0.001 -0.004 -0.002  0.000  0.000  0.000  0.000  0.000 -0.304
   1.453   -11.520 -0.299 -0.001 -0.004 -0.002  0.000  0.000  0.000  0.000  0.000 -0.306
   1.471   -11.477 -0.301 -0.001 -0.004 -0.002  0.000  0.000  0.000  0.000  0.000 -0.309
   1.488   -11.434 -0.304 -0.001 -0.003 -0.002  0.000  0.000  0.000  0.000  0.000 -0.311
   1.505   -11.390 -0.306 -0.001 -0.003 -0.002  0.000  0.000  0.000  0.000  0.000 -0.314
   1.522   -11.346 -0.309 -0.001 -0.003 -0.002  0.000  0.000  0.000  0.000  0.000 -0.317
   1.539   -11.302 -0.313 -0.001 -0.003 -0.002  0.000  0.000  0.000  0.000  0.000 -0.320
   1.557   -11.258 -0.316 -0.001 -0.003 -0.002  0.000  0.000  0.000  0.000  0.000 -0.323
   1.574   -11.214 -0.320 -0.001 -0.003 -0.002  0.000  0.000  0.000  0.000  0.000 -0.327
   1.591   -11.171 -0.323 -0.001 -0.003 -0.002  0.000  0.000  0.000  0.000  0.000 -0.330
   1.608   -11.129 -0.327 -0.001 -0.003 -0.002  0.000  0.000  0.000  0.000  0.000 -0.334
   1.625   -11.088 -0.331 -0.001 -0.003 -0.002  0.000  0.000  0.000  0.000  0.000 -0.338
   1.642   -11.048 -0.336 -0.001 -0.003 -0.002  0.000  0.000  0.000  0.000  0.000 -0.342
   1.660   -11.010 -0.340 -0.001 -0.003 -0.002  0.000  0.000  0.000  0.000  0.000 -0.346
   1.677   -10.975 -0.344 -0.001 -0.003 -0.002  0.000  0.000  0.000  0.000  0.000 -0.350
   1.694   -10.942 -0.348 -0.001 -0.002 -0.002  0.000  0.000  0.000  0.000  0.000 -0.353
   1.711   -10.913 -0.352 -0.001 -0.002 -0.001  0.000  0.000  0.000  0.000  0.000 -0.357
   1.728   -10.887 -0.355 -0.001 -0.002 -0.001  0.000  0.000  0.000  0.000  0.000 -0.360
   1.746   -10.865 -0.358 -0.001 -0.002 -0.001  0.000  0.000  0.000  0.000  0.000 -0.363
   1.763   -10.847 -0.360 -0.001 -0.002 -0.001  0.000  0.000  0.000  0.000  0.000 -0.365
   1.780   -10.834 -0.361 -0.001 -0.002 -0.001  0.000  0.000  0.000  0.000  0.000 -0.365
   1.797   -10.826 -0.358  0.000 -0.002 -0.001  0.000  0.000  0.000  0.000  0.000 -0.362
   1.814   -10.823  0.491  0.000  0.003  0.001  0.000  0.000  0.000  0.000  0.000  0.496
   1.814   -10.823  0.491  0.000  0.003  0.001  0.000  0.000  0.000  0.000  0.000  0.497
   1.824   -10.823 -0.252  0.000 -0.001 -0.001  0.000  0.000  0.000  0.000  0.000 -0.255
   1.834   -10.822 -0.258  0.000 -0.001 -0.001  0.000  0.000  0.000  0.000  0.000 -0.261
   1.844   -10.821 -0.259  0.000 -0.001 -0.001  0.000  0.000  0.000  0.000  0.000 -0.262
   1.854   -10.820 -0.259  0.000 -0.001 -0.001  0.000  0.000  0.000  0.000  0.000 -0.261
   1.864   -10.818 -0.257  0.000 -0.001 -0.001  0.000  0.000  0.000  0.000  0.000 -0.260
   1.874   -10.816 -0.255  0.000 -0.001 -0.001  0.000  0.000  0.000  0.000  0.000 -0.258
   1.884   -10.813 -0.253  0.000 -0.001 -0.001  0.000  0.000  0.000  0.000  0.000 -0.256
   1.894   -10.810 -0.250  0.000 -0.001 -0.001  0.000  0.000  0.000  0.000  0.000 -0.253
   1.904   -10.806 -0.246  0.000 -0.001 -0.001  0.000  0.000  0.000  0.000  0.000 -0.249
   1.913   -10.802 -0.243  0.000 -0.001 -0.001  0.000  0.000  0.000  0.000  0.000 -0.245
   1.923   -10.798 -0.238  0.000 -0.001 -0.001  0.000  0.000  0.000  0.000  0.000 -0.241
   1.933   -10.793 -0.234  0.000 -0.001 -0.001  0.000  0.000  0.000  0.000  0.000 -0.236
   1.943   -10.788 -0.229  0.000 -0.001 -0.001  0.000  0.000  0.000  0.000  0.000 -0.232
   1.953   -10.782 -0.224  0.000 -0.001 -0.001  0.000  0.000  0.000  0.000  0.000 -0.226
   1.963   -10.777 -0.218  0.000 -0.001 -0.001  0.000  0.000  0.000  0.000  0.000 -0.221
   1.973   -10.770 -0.213  0.000 -0.001 -0.001  0.000  0.000  0.000  0.000  0.000 -0.215
   1.983   -10.764 -0.207  0.000 -0.001 -0.001  0.000  0.000  0.000  0.000  0.000 -0.209
   1.993   -10.757 -0.200  0.000 -0.001 -0.001  0.000  0.000  0.000  0.000  0.000 -0.203
   2.003   -10.750 -0.194  0.000 -0.001 -0.001  0.000  0.000  0.000  0.000  0.000 -0.196
   2.013   -10.742 -0.187  0.000 -0.001 -0.001  0.000  0.000  0.000  0.000  0.000 -0.189
   2.023   -10.734 -0.181  0.000 -0.001 -0.001  0.000  0.000  0.000  0.000  0.000 -0.183
   2.033   -10.726 -0.174  0.000 -0.001 -0.001  0.000  0.000  0.000  0.000  0.000 -0.176
   2.042   -10.718 -0.167  0.000 -0.001  0.000  0.000  0.000  0.000  0.000  0.000 -0.169
   2.052   -10.710 -0.160  0.000 -0.001  0.000  0.000  0.000  0.000  0.000  0.000 -0.162
   2.062   -10.701 -0.153  0.000 -0.001  0.000  0.000  0.000  0.000  0.000  0.000 -0.154
   2.072   -10.692 -0.146  0.000 -0.001  0.000  0.000  0.000  0.000  0.000  0.000 -0.147
   2.082   -10.683 -0.139  0.000 -0.001  0.000  0.000  0.000  0.000  0.000  0.000 -0.140
   2.092   -10.674 -0.132  0.000 -0.001  0.000  0.000  0.000  0.000  0.000  0.000 -0.133
   2.102   -10.665 -0.124  0.000 -0.001  0.000  0.000  0.000  0.000  0.000  0.000 -0.126
   2.112   -10.656 -0.117  0.000 -0.001  0.000  0.000  0.000  0.000  0.000  0.000 -0.119
   2.122   -10.647 -0.111  0.000  0.000  0.000  0.000  0.000  0.000  0.000  0.000 -0.112
   2.132   -10.638 -0.104  0.000  0.000  0.000  0.000  0.000  0.000  0.000  0.000 -0.105
   2.142   -10.629 -0.097  0.000  0.000  0.000  0.000  0.000  0.000  0.000  0.000 -0.098
   2.152   -10.620 -0.090  0.000  0.000  0.000  0.000  0.000  0.000  0.000  0.000 -0.091
   2.162   -10.611 -0.084  0.000  0.000  0.000  0.000  0.000  0.000  0.000  0.000 -0.084
   2.171   -10.603 -0.077  0.000  0.000  0.000  0.000  0.000  0.000  0.000  0.000 -0.078
   2.181   -10.595 -0.071  0.000  0.000  0.000  0.000  0.000  0.000  0.000  0.000 -0.072
   2.191   -10.587 -0.065  0.000  0.000  0.000  0.000  0.000  0.000  0.000  0.000 -0.065
   2.201   -10.579 -0.059  0.000  0.000  0.000  0.000  0.000  0.000  0.000  0.000 -0.059
   2.211   -10.572 -0.053  0.000  0.000  0.000  0.000  0.000  0.000  0.000  0.000 -0.053
   2.221   -10.566 -0.047  0.000  0.000  0.000  0.000  0.000  0.000  0.000  0.000 -0.047
   2.231   -10.560 -0.041  0.000  0.000  0.000  0.000  0.000  0.000  0.000  0.000 -0.041
   2.241   -10.554 -0.035  0.000  0.000  0.000  0.000  0.000  0.000  0.000  0.000 -0.035
   2.251   -10.550 -0.029  0.000  0.000  0.000  0.000  0.000  0.000  0.000  0.000 -0.030
   2.261   -10.546 -0.024  0.000  0.000  0.000  0.000  0.000  0.000  0.000  0.000 -0.024
   2.271   -10.542 -0.018  0.000  0.000  0.000  0.000  0.000  0.000  0.000  0.000 -0.018
   2.281   -10.540 -0.012  0.000  0.000  0.000  0.000  0.000  0.000  0.000  0.000 -0.012
   2.291   -10.539 -0.006  0.000  0.000  0.000  0.000  0.000  0.000  0.000  0.000 -0.006
   2.300   -10.538  0.000  0.000  0.000  0.000  0.000  0.000  0.000  0.000  0.000  0.000
   2.300   -10.538  0.000  0.000  0.000  0.000  0.000  0.000  0.000  0.000  0.000  0.000
   2.320   -10.540 -0.013  0.000  0.000  0.000  0.000  0.000  0.000  0.000  0.000 -0.013
   2.340   -10.547 -0.028  0.000  0.000  0.000  0.000  0.000  0.000  0.000  0.000 -0.028
   2.360   -10.558 -0.046  0.000  0.000  0.000  0.000  0.000  0.000  0.000  0.000 -0.046
   2.380   -10.573 -0.067  0.000  0.000  0.000  0.000  0.000  0.000  0.000  0.000 -0.068
   2.400   -10.594 -0.094  0.000  0.000  0.000  0.000  0.000  0.000  0.000  0.000 -0.094
   2.419   -10.619 -0.126  0.000 -0.001  0.000  0.000  0.000  0.000  0.000  0.000 -0.127
   2.439   -10.648 -0.166 -0.001 -0.001  0.000  0.000  0.000  0.000  0.000  0.000 -0.167
   2.459   -10.681 -0.214 -0.001 -0.001  0.000  0.000  0.000  0.000  0.000  0.000 -0.216
   2.479   -10.719 -0.270 -0.001 -0.002  0.000  0.000  0.000  0.000  0.000  0.000 -0.274
   2.499   -10.760 -0.333 -0.002 -0.002 -0.001  0.000  0.000  0.000  0.000  0.000 -0.338
   2.519   -10.803 -0.398 -0.002 -0.002 -0.001  0.000  0.000  0.000  0.000  0.000 -0.404
   2.539   -10.850 -0.457 -0.003 -0.003 -0.001  0.000  0.000  0.000  0.000  0.000 -0.464
   2.558   -10.898 -0.504 -0.003 -0.003 -0.001  0.000  0.000  0.000  0.000  0.000 -0.513
   2.578   -10.949 -0.536 -0.004 -0.004 -0.001  0.000  0.000  0.000  0.000  0.000 -0.545
   2.598   -11.001 -0.553 -0.004 -0.004 -0.001  0.000  0.000  0.000  0.000  0.000 -0.564
   2.618   -11.054 -0.560 -0.005 -0.005 -0.002  0.000  0.000  0.000  0.000  0.000 -0.572
   2.638   -11.107 -0.560 -0.005 -0.005 -0.002  0.000  0.000  0.000  0.000  0.000 -0.572
   2.658   -11.161 -0.557 -0.005 -0.005 -0.002  0.000  0.000  0.000  0.000  0.000 -0.569
   2.677   -11.215 -0.551 -0.005 -0.005 -0.002  0.000  0.000  0.000  0.000  0.000 -0.564
   2.697   -11.269 -0.545 -0.005 -0.005 -0.002  0.000  0.000  0.000  0.000  0.000 -0.558
   2.717   -11.323 -0.538 -0.005 -0.006 -0.002  0.000  0.000  0.000  0.000  0.000 -0.551
   2.737   -11.375 -0.532 -0.005 -0.006 -0.002  0.000  0.000  0.000  0.000  0.000 -0.545
   2.757   -11.428 -0.526 -0.005 -0.006 -0.001  0.000  0.000  0.000  0.000  0.000 -0.539
   2.777   -11.479 -0.521 -0.005 -0.006 -0.001  0.000  0.000  0.000  0.000  0.000 -0.534
   2.797   -11.529 -0.516 -0.005 -0.006 -0.001  0.000  0.000  0.000  0.000  0.000 -0.529
   2.816   -11.578 -0.511 -0.005 -0.006 -0.001  0.000  0.000  0.000  0.000  0.000 -0.524
   2.836   -11.625 -0.507 -0.004 -0.007 -0.001  0.000  0.000  0.000  0.000  0.000 -0.520
   2.856   -11.671 -0.504 -0.004 -0.007 -0.001  0.000  0.000  0.000  0.000  0.000 -0.516
   2.876   -11.715 -0.500 -0.004 -0.007 -0.001  0.000  0.000  0.000  0.000  0.000 -0.513
   2.896   -11.758 -0.497 -0.004 -0.007 -0.001  0.000  0.000  0.000  0.000  0.000 -0.509
   2.916   -11.799 -0.495 -0.003 -0.007 -0.001  0.000  0.000  0.000  0.000  0.000 -0.506
   2.935   -11.838 -0.492 -0.003 -0.007 -0.001  0.000  0.000  0.000  0.000  0.000 -0.504
   2.955   -11.875 -0.490 -0.003 -0.007 -0.001  0.000  0.000  0.000  0.000  0.000 -0.501
   2.975   -11.910 -0.488 -0.003 -0.007 -0.001  0.000  0.000  0.000  0.000  0.000 -0.499
   2.995   -11.944 -0.486 -0.002 -0.008 -0.001  0.000  0.000  0.000  0.000  0.000 -0.497
   3.015   -11.975 -0.485 -0.002 -0.008  0.000  0.000  0.000  0.000  0.000  0.000 -0.495
   3.035   -12.003 -0.483 -0.002 -0.008  0.000  0.000  0.000  0.000  0.000  0.000 -0.493
   3.055   -12.030 -0.482 -0.002 -0.008  0.000  0.000  0.000  0.000  0.000  0.000 -0.492
   3.074   -12.055 -0.481 -0.001 -0.008  0.000  0.000  0.000  0.000  0.000  0.000 -0.490
   3.094   -12.077 -0.480 -0.001 -0.008  0.000  0.000  0.000  0.000  0.000  0.000 -0.489
   3.114   -12.097 -0.479 -0.001 -0.008  0.000  0.000  0.000  0.000  0.000  0.000 -0.488
   3.134   -12.114 -0.478 -0.001 -0.008  0.000  0.000  0.000  0.000  0.000  0.000 -0.487
   3.154   -12.129 -0.477 -0.001 -0.008  0.000  0.000  0.000  0.000  0.000  0.000 -0.486
   3.174   -12.142 -0.477  0.000 -0.008  0.000  0.000  0.000  0.000  0.000  0.000 -0.485
   3.193   -12.153 -0.476  0.000 -0.008  0.000  0.000  0.000  0.000  0.000  0.000 -0.485
   3.213   -12.161 -0.476  0.000 -0.008  0.000  0.000  0.000  0.000  0.000  0.000 -0.484
   3.233   -12.167 -0.475  0.000 -0.008  0.000  0.000  0.000  0.000  0.000  0.000 -0.484
   3.253   -12.170 -0.475  0.000 -0.008  0.000  0.000  0.000  0.000  0.000  0.000 -0.483
   3.273   -12.171  0.206  0.000  0.004  0.000  0.000  0.000  0.000  0.000  0.000  0.210
# Band-Index:    2
   3.273   -12.171 -0.206  0.000 -0.004  0.000  0.000  0.000  0.000  0.000  0.000 -0.210
   3.253   -12.170  0.475  0.000  0.008  0.000  0.000  0.000  0.000  0.000  0.000  0.483
   3.233   -12.166  0.476  0.000  0.008  0.000  0.000  0.000  0.000  0.000  0.000  0.484
   3.213   -12.160  0.477  0.000  0.008  0.000  0.000  0.000  0.000  0.000  0.000  0.485
   3.193   -12.151  0.477  0.000  0.008  0.000  0.000  0.000  0.000  0.000  0.000  0.485
   3.174   -12.140  0.478  0.000  0.008  0.000  0.000  0.000  0.000  0.000  0.000  0.486
   3.154   -12.127  0.479  0.000  0.008  0.000  0.000  0.000  0.000  0.000  0.000  0.487
   3.134   -12.111  0.480  0.000  0.008  0.000  0.000  0.000  0.000  0.000  0.000  0.488
   3.114   -12.093  0.481  0.001  0.008  0.000  0.000  0.000  0.000  0.000  0.000  0.489
   3.094   -12.073  0.482  0.001  0.008  0.000  0.000  0.000  0.000  0.000  0.000  0.490
   3.074   -12.050  0.483  0.001  0.008  0.000  0.000  0.000  0.000  0.000  0.000  0.492
   3.055   -12.025  0.484  0.001  0.007  0.000  0.000  0.000  0.000  0.000  0.000  0.493
   3.035   -11.998  0.486  0.001  0.007  0.000  0.000  0.000  0.000  0.000  0.000  0.495
   3.015   -11.969  0.487  0.001  0.007  0.001  0.000  0.000  0.000  0.000  0.000  0.497
   2.995   -11.938  0.489  0.002  0.007  0.001  0.000  0.000  0.000  0.000  0.000  0.499
   2.975   -11.904  0.491  0.002  0.007  0.001  0.000  0.000  0.000  0.000  0.000  0.501
   2.955   -11.869  0.494  0.002  0.007  0.001  0.000  0.000  0.000  0.000  0.000  0.504
   2.935   -11.831  0.496  0.002  0.007  0.001  0.000  0.000  0.000  0.000  0.000  0.506
   2.916   -11.792  0.499  0.003  0.007  0.001  0.000  0.000  0.000  0.000  0.000  0.509
   2.896   -11.751  0.502  0.003  0.006  0.001  0.000  0.000  0.000  0.000  0.000  0.512
   2.876   -11.708  0.505  0.003  0.006  0.001  0.000  0.000  0.000  0.000  0.000  0.516
   2.856   -11.664  0.508  0.003  0.006  0.001  0.000  0.000  0.000  0.000  0.000  0.519
   2.836   -11.617  0.512  0.003  0.006  0.001  0.000  0.000  0.000  0.000  0.000  0.523
