#K-Path     Energy     s    py    pz    px    dxy    dyz    dz2    dxz    dx2-y2    tot
# Band-Index:    1
   0.000    -8.941  0.446  0.014  0.005  0.014  0.001  0.001  0.000  0.001  0.001  0.481
   0.021    -8.992  0.315  0.010  0.004  0.009  0.000  0.000  0.000  0.000  0.000  0.339
   0.041    -9.064  0.309  0.010  0.004  0.008  0.000  0.000  0.000  0.000  0.000  0.332
   0.062    -9.139  0.308  0.010  0.004  0.008  0.000  0.000  0.000  0.000  0.000  0.331
   0.083    -9.217  0.307  0.010  0.004  0.007  0.000  0.000  0.000  0.000  0.000  0.331
   0.104    -9.296  0.308  0.010  0.004  0.007  0.000  0.000  0.000  0.000  0.000  0.331
   0.124    -9.377  0.308  0.011  0.005  0.007  0.000  0.000  0.000  0.000  0.000  0.331
   0.145    -9.460  0.308  0.011  0.005  0.005  0.000  0.000  0.000  0.000  0.000  0.331
   0.166    -9.543  0.308  0.011  0.006  0.005  0.000  0.000  0.000  0.000  0.000  0.331
   0.186    -9.627  0.308  0.011  0.006  0.005  0.000  0.000  0.000  0.000  0.000  0.331
   0.207    -9.712  0.309  0.011  0.006  0.005  0.000  0.000  0.000  0.000  0.000  0.331
   0.228    -9.796  0.308  0.011  0.006  0.005  0.000  0.000  0.000  0.000  0.000  0.331
   0.249    -9.881  0.309  0.010  0.006  0.005  0.000  0.000  0.000  0.000  0.000  0.331
   0.269    -9.965  0.309  0.010  0.006  0.004  0.000  0.000  0.000  0.000  0.000  0.331
   0.290   -10.049  0.308  0.010  0.007  0.004  0.000  0.000  0.000  0.000  0.000  0.331
   0.311   -10.131  0.309  0.009  0.008  0.004  0.000  0.000  0.000  0.000  0.000  0.331
   0.331   -10.213  0.309  0.009  0.008  0.004  0.000  0.000  0.000  0.000  0.000  0.330
   0.352   -10.294  0.309  0.009  0.008  0.004  0.000  0.000  0.000  0.000  0.000  0.330
   0.373   -10.373  0.310  0.008  0.008  0.004  0.000  0.000  0.000  0.000  0.000  0.330
   0.394   -10.451  0.310  0.008  0.008  0.003  0.000  0.000  0.000  0.000  0.000  0.330
   0.414   -10.527  0.310  0.008  0.008  0.003  0.000  0.000  0.000  0.000  0.000  0.329
   0.435   -10.602  0.310  0.008  0.008  0.002  0.000  0.000  0.000  0.000  0.000  0.329
   0.456   -10.675  0.311  0.007  0.008  0.002  0.000  0.000  0.000  0.000  0.000  0.329
   0.476   -10.745  0.311  0.007  0.008  0.002  0.000  0.000  0.000  0.000  0.000  0.329
   0.497   -10.814  0.311  0.006  0.010  0.002  0.000  0.000  0.000  0.000  0.000  0.329
   0.518   -10.880  0.311  0.006  0.010  0.002  0.000  0.000  0.000  0.000  0.000  0.329
   0.539   -10.945  0.311  0.006  0.010  0.002  0.000  0.000  0.000  0.000  0.000  0.329
   0.559   -11.007  0.311  0.006  0.010  0.002  0.000  0.000  0.000  0.000  0.000  0.328
   0.580   -11.066  0.312  0.004  0.010  0.002  0.000  0.000  0.000  0.000  0.000  0.328
   0.601   -11.123  0.312  0.004  0.010  0.002  0.000  0.000  0.000  0.000  0.000  0.328
   0.621   -11.178  0.312  0.004  0.010  0.002  0.000  0.000  0.000  0.000  0.000  0.328
   0.642   -11.230  0.312  0.004  0.010  0.002  0.000  0.000  0.000  0.000  0.000  0.328
   0.663   -11.280  0.312  0.004  0.010  0.002  0.000  0.000  0.000  0.000  0.000  0.328
   0.684   -11.327  0.312  0.003  0.010  0.001  0.000  0.000  0.000  0.000  0.000  0.328
   0.704   -11.371  0.314  0.002  0.010  0.000  0.000  0.000  0.000  0.000  0.000  0.328
   0.725   -11.412  0.314  0.002  0.010  0.000  0.000  0.000  0.000  0.000  0.000  0.328
   0.746   -11.451  0.314  0.002  0.010  0.000  0.000  0.000  0.000  0.000  0.000  0.328
   0.766   -11.487  0.314  0.002  0.010  0.000  0.000  0.000  0.000  0.000  0.000  0.327
   0.787   -11.520  0.314  0.002  0.010  0.000  0.000  0.000  0.000  0.000  0.000  0.326
   0.808   -11.551  0.314  0.002  0.011  0.000  0.000  0.000  0.000  0.000  0.000  0.326
   0.829   -11.578  0.314  0.000  0.012  0.000  0.000  0.000  0.000  0.000  0.000  0.326
   0.849   -11.603  0.314  0.000  0.012  0.000  0.000  0.000  0.000  0.000  0.000  0.326
   0.870   -11.625  0.314  0.000  0.012  0.000  0.000  0.000  0.000  0.000  0.000  0.326
   0.891   -11.644  0.314  0.000  0.012  0.000  0.000  0.000  0.000  0.000  0.000  0.326
   0.912   -11.660  0.314  0.000  0.012  0.000  0.000  0.000  0.000  0.000  0.000  0.326
   0.932   -11.673  0.314  0.000  0.012  0.000  0.000  0.000  0.000  0.000  0.000  0.326
   0.953   -11.683  0.314  0.000  0.012  0.000  0.000  0.000  0.000  0.000  0.000  0.326
   0.974   -11.691  0.316  0.000  0.012  0.000  0.000  0.000  0.000  0.000  0.000  0.326
   0.994   -11.695  0.314  0.000  0.012  0.000  0.000  0.000  0.000  0.000  0.000  0.326
   1.015   -11.697  0.316  0.000  0.012  0.000  0.000  0.000  0.000  0.000  0.000  0.326
   1.015   -11.697  0.316  0.000  0.012  0.000  0.000  0.000  0.000  0.000  0.000  0.326
   1.033   -11.696  0.314  0.000  0.012  0.000  0.000  0.000  0.000  0.000  0.000  0.326
   1.051   -11.692  0.314  0.000  0.012  0.000  0.000  0.000  0.000  0.000  0.000  0.326
   1.069   -11.687  0.314  0.000  0.012  0.000  0.000  0.000  0.000  0.000  0.000  0.326
   1.087   -11.679  0.314  0.000  0.012  0.000  0.000  0.000  0.000  0.000  0.000  0.326
   1.105   -11.669  0.314  0.000  0.012  0.000  0.000  0.000  0.000  0.000  0.000  0.326
   1.123   -11.657  0.314  0.000  0.012  0.000  0.000  0.000  0.000  0.000  0.000  0.326
   1.141   -11.643  0.314  0.000  0.012  0.000  0.000  0.000  0.000  0.000  0.000  0.326
   1.159   -11.627  0.314  0.000  0.012  0.000  0.000  0.000  0.000  0.000  0.000  0.326
   1.177   -11.608  0.312  0.000  0.012  0.000  0.000  0.000  0.000  0.000  0.000  0.326
   1.195   -11.587  0.312  0.000  0.012  0.000  0.000  0.000  0.000  0.000  0.000  0.324
   1.212   -11.564  0.312  0.000  0.010  0.002  0.000  0.000  0.000  0.000  0.000  0.324
   1.230   -11.539  0.312  0.000  0.010  0.002  0.000  0.000  0.000  0.000  0.000  0.324
   1.248   -11.512  0.312  0.000  0.010  0.002  0.000  0.000  0.000  0.000  0.000  0.324
   1.266   -11.483  0.310  0.000  0.010  0.002  0.000  0.000  0.000  0.000  0.000  0.324
   1.284   -11.452  0.310  0.000  0.010  0.002  0.000  0.000  0.000  0.000  0.000  0.324
   1.302   -11.419  0.310  0.000  0.010  0.002  0.000  0.000  0.000  0.000  0.000  0.324
   1.320   -11.383  0.310  0.000  0.010  0.002  0.000  0.000  0.000  0.000  0.000  0.324
   1.338   -11.346  0.308  0.000  0.010  0.002  0.000  0.000  0.000  0.000  0.000  0.322
   1.356   -11.306  0.308  0.002  0.010  0.004  0.000  0.000  0.000  0.000  0.000  0.322
   1.374   -11.265  0.308  0.002  0.010  0.004  0.000  0.000  0.000  0.000  0.000  0.322
   1.392   -11.222  0.306  0.002  0.010  0.004  0.000  0.000  0.000  0.000  0.000  0.322
   1.410   -11.176  0.306  0.002  0.010  0.004  0.000  0.000  0.000  0.000  0.000  0.322
   1.428   -11.129  0.306  0.002  0.010  0.004  0.000  0.000  0.000  0.000  0.000  0.322
   1.446   -11.081  0.304  0.002  0.010  0.004  0.000  0.000  0.000  0.000  0.000  0.320
   1.464   -11.030  0.304  0.002  0.010  0.004  0.000  0.000  0.000  0.000  0.000  0.320
   1.482   -10.978  0.302  0.002  0.010  0.006  0.000  0.000  0.000  0.000  0.000  0.320
   1.500   -10.924  0.302  0.002  0.010  0.006  0.000  0.000  0.000  0.000  0.000  0.318
   1.518   -10.868  0.300  0.002  0.010  0.006  0.000  0.000  0.000  0.000  0.000  0.318
   1.535   -10.811  0.300  0.002  0.008  0.006  0.000  0.000  0.000  0.000  0.000  0.318
   1.553   -10.753  0.298  0.002  0.008  0.006  0.000  0.000  0.000  0.000  0.000  0.316
   1.571   -10.694  0.298  0.002  0.008  0.006  0.000  0.000  0.000  0.000  0.000  0.316
   1.589   -10.633  0.296  0.002  0.008  0.006  0.000  0.000  0.000  0.000  0.000  0.314
   1.607   -10.572  0.296  0.002  0.008  0.008  0.000  0.000  0.000  0.000  0.000  0.314
   1.625   -10.509  0.294  0.002  0.008  0.008  0.000  0.000  0.000  0.000  0.000  0.312
   1.643   -10.447  0.292  0.002  0.008  0.008  0.000  0.000  0.000  0.000  0.000  0.310
   1.661   -10.383  0.290  0.002  0.008  0.008  0.000  0.000  0.000  0.000  0.000  0.310
   1.679   -10.320  0.288  0.002  0.008  0.008  0.000  0.000  0.000  0.000  0.000  0.308
   1.697   -10.258  0.286  0.002  0.008  0.008  0.000  0.000  0.000  0.000  0.000  0.306
   1.715   -10.196  0.284  0.002  0.008  0.008  0.000  0.000  0.000  0.000  0.000  0.304
   1.733   -10.136  0.282  0.002  0.006  0.008  0.000  0.000  0.000  0.000  0.000  0.302
   1.751   -10.078  0.280  0.002  0.006  0.008  0.000  0.000  0.000  0.000  0.000  0.298
   1.769   -10.022  0.278  0.002  0.006  0.008  0.000  0.000  0.000  0.000  0.000  0.296
   1.787    -9.971  0.276  0.002  0.006  0.008  0.000  0.000  0.000  0.000  0.000  0.294
   1.805    -9.924  0.272  0.002  0.006  0.008  0.000  0.000  0.000  0.000  0.000  0.290
   1.823    -9.883  0.270  0.002  0.006  0.008  0.000  0.000  0.000  0.000  0.000  0.288
   1.841    -9.849  0.268  0.002  0.006  0.008  0.000  0.000  0.000  0.000  0.000  0.286
   1.858    -9.824  0.268  0.002  0.006  0.008  0.000  0.000  0.000  0.000  0.000  0.284
   1.876    -9.809  0.266  0.002  0.006  0.008  0.000  0.000  0.000  0.000  0.000  0.284
   1.894    -9.804  0.266  0.002  0.006  0.008  0.000  0.000  0.000  0.000  0.000  0.284
   1.894    -9.804  0.266  0.002  0.006  0.008  0.000  0.000  0.000  0.000  0.000  0.284
   1.905    -9.803  0.267  0.002  0.006  0.008  0.000  0.000  0.000  0.000  0.000  0.284
   1.915    -9.802  0.267  0.002  0.006  0.008  0.000  0.000  0.000  0.000  0.000  0.284
   1.925    -9.800  0.267  0.002  0.006  0.008  0.000  0.000  0.000  0.000  0.000  0.284
   1.936    -9.798  0.267  0.002  0.006  0.007  0.000  0.000  0.000  0.000  0.000  0.285
   1.946    -9.794  0.268  0.002  0.006  0.007  0.000  0.000  0.000  0.000  0.000  0.285
   1.957    -9.790  0.268  0.002  0.006  0.007  0.000  0.000  0.000  0.000  0.000  0.285
   1.967    -9.785  0.268  0.002  0.006  0.007  0.000  0.000  0.000  0.000  0.000  0.285
   1.977    -9.779  0.268  0.002  0.006  0.007  0.000  0.000  0.000  0.000  0.000  0.286
   1.988    -9.773  0.269  0.002  0.006  0.007  0.000  0.000  0.000  0.000  0.000  0.286
   1.998    -9.766  0.269  0.002  0.006  0.007  0.000  0.000  0.000  0.000  0.000  0.286
   2.008    -9.758  0.269  0.003  0.006  0.007  0.000  0.000  0.000  0.000  0.000  0.287
   2.019    -9.749  0.270  0.003  0.006  0.007  0.000  0.000  0.000  0.000  0.000  0.287
   2.029    -9.740  0.270  0.003  0.006  0.007  0.000  0.000  0.000  0.000  0.000  0.287
   2.039    -9.730  0.270  0.003  0.006  0.007  0.000  0.000  0.000  0.000  0.000  0.288
   2.050    -9.719  0.270  0.003  0.006  0.007  0.000  0.000  0.000  0.000  0.000  0.288
   2.060    -9.707  0.271  0.003  0.006  0.007  0.000  0.000  0.000  0.000  0.000  0.288
   2.070    -9.695  0.271  0.003  0.006  0.007  0.000  0.000  0.000  0.000  0.000  0.290
   2.081    -9.682  0.271  0.003  0.006  0.007  0.000  0.000  0.000  0.000  0.000  0.290
   2.091    -9.668  0.272  0.003  0.006  0.007  0.000  0.000  0.000  0.000  0.000  0.290
   2.102    -9.653  0.272  0.004  0.006  0.007  0.000  0.000  0.000  0.000  0.000  0.291
   2.112    -9.638  0.273  0.004  0.006  0.007  0.000  0.000  0.000  0.000  0.000  0.291
   2.122    -9.622  0.273  0.004  0.006  0.007  0.000  0.000  0.000  0.000  0.000  0.292
   2.133    -9.605  0.273  0.004  0.006  0.007  0.000  0.000  0.000  0.000  0.000  0.292
   2.143    -9.587  0.274  0.004  0.006  0.007  0.000  0.000  0.000  0.000  0.000  0.292
   2.153    -9.569  0.274  0.004  0.006  0.007  0.000  0.000  0.000  0.000  0.000  0.293
   2.164    -9.550  0.275  0.005  0.006  0.007  0.000  0.000  0.000  0.000  0.000  0.294
   2.174    -9.530  0.275  0.005  0.006  0.007  0.000  0.000  0.000  0.000  0.000  0.294
   2.184    -9.510  0.276  0.005  0.006  0.007  0.000  0.000  0.000  0.000  0.000  0.295
   2.195    -9.489  0.277  0.005  0.005  0.007  0.000  0.000  0.000  0.000  0.000  0.295
   2.205    -9.467  0.276  0.005  0.005  0.007  0.000  0.000  0.000  0.000  0.000  0.296
   2.215    -9.445  0.277  0.005  0.005  0.007  0.000  0.000  0.000  0.000  0.000  0.297
   2.226    -9.422  0.278  0.005  0.005  0.007  0.000  0.000  0.000  0.000  0.000  0.297
   2.236    -9.398  0.278  0.005  0.005  0.008  0.000  0.000  0.000  0.000  0.000  0.298
   2.247    -9.373  0.279  0.005  0.005  0.008  0.000  0.000  0.000  0.000  0.000  0.299
   2.257    -9.348  0.279  0.006  0.005  0.008  0.000  0.000  0.000  0.000  0.000  0.299
   2.267    -9.322  0.280  0.006  0.005  0.008  0.000  0.000  0.000  0.000  0.000  0.300
   2.278    -9.296  0.280  0.007  0.004  0.008  0.000  0.000  0.000  0.000  0.000  0.301
   2.288    -9.268  0.282  0.007  0.004  0.008  0.000  0.000  0.000  0.000  0.000  0.302
   2.298    -9.241  0.282  0.007  0.004  0.008  0.000  0.000  0.000  0.000  0.000  0.303
   2.309    -9.212  0.283  0.007  0.004  0.008  0.000  0.000  0.000  0.000  0.000  0.304
   2.319    -9.183  0.283  0.007  0.004  0.008  0.000  0.000  0.000  0.000  0.000  0.305
   2.329    -9.153  0.285  0.008  0.004  0.008  0.000  0.000  0.000  0.000  0.000  0.306
   2.340    -9.123  0.286  0.008  0.004  0.008  0.000  0.000  0.000  0.000  0.000  0.308
   2.350    -9.092  0.287  0.008  0.004  0.008  0.000  0.000  0.000  0.000  0.000  0.309
   2.360    -9.061  0.288  0.008  0.004  0.009  0.000  0.000  0.000  0.000  0.000  0.311
   2.371    -9.029  0.292  0.009  0.003  0.009  0.000  0.000  0.000  0.000  0.000  0.314
   2.381    -8.997  0.297  0.009  0.004  0.009  0.000  0.000  0.000  0.000  0.000  0.320
   2.392    -8.965  0.315  0.009  0.004  0.009  0.000  0.000  0.000  0.000  0.000  0.341
   2.402    -8.941  0.446  0.014  0.005  0.014  0.001  0.001  0.000  0.001  0.001  0.481
   2.402    -8.941  0.446  0.014  0.005  0.014  0.001  0.001  0.000  0.001  0.001  0.481
   2.423    -8.992  0.315  0.010  0.004  0.009  0.000  0.000  0.000  0.000  0.000  0.339
   2.443    -9.064  0.309  0.010  0.004  0.008  0.000  0.000  0.000  0.000  0.000  0.332
   2.464    -9.139  0.308  0.010  0.004  0.008  0.000  0.000  0.000  0.000  0.000  0.331
   2.485    -9.217  0.307  0.010  0.004  0.007  0.000  0.000  0.000  0.000  0.000  0.331
   2.505    -9.296  0.308  0.010  0.004  0.007  0.000  0.000  0.000  0.000  0.000  0.331
   2.526    -9.377  0.308  0.011  0.005  0.007  0.000  0.000  0.000  0.000  0.000  0.331
   2.547    -9.460  0.308  0.011  0.005  0.005  0.000  0.000  0.000  0.000  0.000  0.331
   2.568    -9.543  0.308  0.011  0.006  0.005  0.000  0.000  0.000  0.000  0.000  0.331
   2.588    -9.627  0.308  0.011  0.006  0.005  0.000  0.000  0.000  0.000  0.000  0.331
   2.609    -9.712  0.309  0.011  0.006  0.005  0.000  0.000  0.000  0.000  0.000  0.331
   2.630    -9.796  0.308  0.010  0.006  0.005  0.000  0.000  0.000  0.000  0.000  0.331
   2.650    -9.881  0.309  0.010  0.006  0.005  0.000  0.000  0.000  0.000  0.000  0.331
   2.671    -9.965  0.309  0.010  0.006  0.004  0.000  0.000  0.000  0.000  0.000  0.331
   2.692   -10.049  0.308  0.010  0.007  0.004  0.000  0.000  0.000  0.000  0.000  0.331
   2.713   -10.131  0.309  0.009  0.008  0.004  0.000  0.000  0.000  0.000  0.000  0.331
   2.733   -10.213  0.309  0.009  0.008  0.004  0.000  0.000  0.000  0.000  0.000  0.330
   2.754   -10.294  0.309  0.009  0.008  0.004  0.000  0.000  0.000  0.000  0.000  0.330
   2.775   -10.373  0.310  0.008  0.008  0.004  0.000  0.000  0.000  0.000  0.000  0.330
   2.796   -10.451  0.310  0.008  0.008  0.003  0.000  0.000  0.000  0.000  0.000  0.330
   2.816   -10.527  0.310  0.008  0.008  0.003  0.000  0.000  0.000  0.000  0.000  0.329
   2.837   -10.602  0.310  0.008  0.008  0.002  0.000  0.000  0.000  0.000  0.000  0.329
   2.858   -10.675  0.310  0.007  0.008  0.002  0.000  0.000  0.000  0.000  0.000  0.329
   2.878   -10.745  0.311  0.007  0.008  0.002  0.000  0.000  0.000  0.000  0.000  0.329
   2.899   -10.814  0.311  0.006  0.010  0.002  0.000  0.000  0.000  0.000  0.000  0.329
   2.920   -10.880  0.311  0.006  0.010  0.002  0.000  0.000  0.000  0.000  0.000  0.329
   2.941   -10.945  0.311  0.006  0.010  0.002  0.000  0.000  0.000  0.000  0.000  0.329
   2.961   -11.007  0.311  0.006  0.010  0.002  0.000  0.000  0.000  0.000  0.000  0.328
   2.982   -11.066  0.312  0.004  0.010  0.002  0.000  0.000  0.000  0.000  0.000  0.328
   3.003   -11.123  0.312  0.004  0.010  0.002  0.000  0.000  0.000  0.000  0.000  0.328
   3.023   -11.178  0.312  0.004  0.010  0.002  0.000  0.000  0.000  0.000  0.000  0.328
   3.044   -11.230  0.312  0.004  0.010  0.002  0.000  0.000  0.000  0.000  0.000  0.328
   3.065   -11.280  0.312  0.004  0.010  0.002  0.000  0.000  0.000  0.000  0.000  0.328
   3.086   -11.327  0.312  0.003  0.010  0.001  0.000  0.000  0.000  0.000  0.000  0.328
   3.106   -11.371  0.313  0.002  0.010  0.000  0.000  0.000  0.000  0.000  0.000  0.328
   3.127   -11.412  0.314  0.002  0.010  0.000  0.000  0.000  0.000  0.000  0.000  0.328
   3.148   -11.451  0.314  0.002  0.010  0.000  0.000  0.000  0.000  0.000  0.000  0.328
   3.168   -11.487  0.314  0.002  0.010  0.000  0.000  0.000  0.000  0.000  0.000  0.327
   3.189   -11.520  0.314  0.002  0.010  0.000  0.000  0.000  0.000  0.000  0.000  0.326
   3.210   -11.551  0.314  0.002  0.010  0.000  0.000  0.000  0.000  0.000  0.000  0.326
   3.231   -11.578  0.314  0.000  0.012  0.000  0.000  0.000  0.000  0.000  0.000  0.326
   3.251   -11.603  0.314  0.000  0.012  0.000  0.000  0.000  0.000  0.000  0.000  0.326
   3.272   -11.625  0.314  0.000  0.012  0.000  0.000  0.000  0.000  0.000  0.000  0.326
   3.293   -11.644  0.314  0.000  0.012  0.000  0.000  0.000  0.000  0.000  0.000  0.326
   3.313   -11.660  0.314  0.000  0.012  0.000  0.000  0.000  0.000  0.000  0.000  0.326
   3.334   -11.673  0.314  0.000  0.012  0.000  0.000  0.000  0.000  0.000  0.000  0.326
   3.355   -11.683  0.314  0.000  0.012  0.000  0.000  0.000  0.000  0.000  0.000  0.326
   3.376   -11.691  0.314  0.000  0.012  0.000  0.000  0.000  0.000  0.000  0.000  0.326
   3.396   -11.695  0.314  0.000  0.012  0.000  0.000  0.000  0.000  0.000  0.000  0.326
   3.417   -11.697  0.316  0.000  0.012  0.000  0.000  0.000  0.000  0.000  0.000  0.326
# Band-Index:    2
   3.417   -11.697 -0.316  0.000 -0.012  0.000  0.000  0.000  0.000  0.000  0.000 -0.326
   3.396   -11.695 -0.314  0.000 -0.012  0.000  0.000  0.000  0.000  0.000  0.000 -0.326
   3.376   -11.691 -0.314  0.000 -0.012  0.000  0.000  0.000  0.000  0.000  0.000 -0.326
   3.355   -11.683 -0.314  0.000 -0.012  0.000  0.000  0.000  0.000  0.000  0.000 -0.326
   3.334   -11.673 -0.314  0.000 -0.012  0.000  0.000  0.000  0.000  0.000  0.000 -0.326
   3.313   -11.660 -0.314  0.000 -0.012  0.000  0.000  0.000  0.000  0.000  0.000 -0.326
   3.293   -11.644 -0.314  0.000 -0.012  0.000  0.000  0.000  0.000  0.000  0.000 -0.326
   3.272   -11.625 -0.314  0.000 -0.012  0.000  0.000  0.000  0.000  0.000  0.000 -0.326
   3.251   -11.603 -0.314  0.000 -0.012  0.000  0.000  0.000  0.000  0.000  0.000 -0.326
   3.231   -11.578 -0.314  0.000 -0.012  0.000  0.000  0.000  0.000  0.000  0.000 -0.326
   3.210   -11.551 -0.314 -0.002 -0.010  0.000  0.000  0.000  0.000  0.000  0.000 -0.326
   3.189   -11.520 -0.314 -0.002 -0.010  0.000  0.000  0.000  0.000  0.000  0.000 -0.326
   3.168   -11.487 -0.314 -0.002 -0.010  0.000  0.000  0.000  0.000  0.000  0.000 -0.327
   3.148   -11.451 -0.314 -0.002 -0.010  0.000  0.000  0.000  0.000  0.000  0.000 -0.328
   3.127   -11.412 -0.314 -0.002 -0.010  0.000  0.000  0.000  0.000  0.000  0.000 -0.328
   3.106   -11.371 -0.313 -0.002 -0.010  0.000  0.000  0.000  0.000  0.000  0.000 -0.328
   3.086   -11.327 -0.312 -0.003 -0.010 -0.001  0.000  0.000  0.000  0.000  0.000 -0.328
   3.065   -11.280 -0.312 -0.004 -0.010 -0.002  0.000  0.000  0.000  0.000  0.000 -0.328
   3.044   -11.230 -0.312 -0.004 -0.010 -0.002  0.000  0.000  0.000  0.000  0.000 -0.328
   3.023   -11.178 -0.312 -0.004 -0.010 -0.002  0.000  0.000  0.000  0.000  0.000 -0.328
   3.003   -11.123 -0.312 -0.004 -0.010 -0.002  0.000  0.000  0.000  0.000  0.000 -0.328
   2.982   -11.066 -0.312 -0.004 -0.010 -0.002  0.000  0.000  0.000  0.000  0.000 -0.328
   2.961   -11.007 -0.311 -0.006 -0.010 -0.002  0.000  0.000  0.000  0.000  0.000 -0.328
