#K-Path     Energy     s    py    pz    px    dxy    dyz    dz2    dxz    dx2-y2    tot
# Band-Index:    1
   0.000    -8.941  0.024  0.000  0.000  0.000  0.000  0.000  0.000  0.000  0.000  0.026
   0.021    -8.992  0.266  0.008  0.003  0.008  0.000  0.000  0.000  0.000  0.000  0.286
   0.041    -9.064  0.276  0.008  0.004  0.007  0.000  0.000  0.000  0.000  0.000  0.297
   0.062    -9.139  0.275  0.009  0.004  0.007  0.000  0.000  0.000  0.000  0.000  0.296
   0.083    -9.217  0.272  0.009  0.004  0.006  0.000  0.000  0.000  0.000  0.000  0.293
   0.104    -9.296  0.268  0.009  0.004  0.006  0.000  0.000  0.000  0.000  0.000  0.289
   0.124    -9.377  0.264  0.009  0.004  0.005  0.000  0.000  0.000  0.000  0.000  0.283
   0.145    -9.460  0.260  0.008  0.004  0.005  0.000  0.000  0.000  0.000  0.000  0.279
   0.166    -9.543  0.256  0.008  0.004  0.005  0.000  0.000  0.000  0.000  0.000  0.275
   0.186    -9.627  0.252  0.008  0.004  0.004  0.000  0.000  0.000  0.000  0.000  0.271
   0.207    -9.712  0.248  0.008  0.005  0.004  0.000  0.000  0.000  0.000  0.000  0.266
   0.228    -9.796  0.244  0.008  0.005  0.004  0.000  0.000  0.000  0.000  0.000  0.261
   0.249    -9.881  0.240  0.008  0.005  0.003  0.000  0.000  0.000  0.000  0.000  0.257
   0.269    -9.965  0.237  0.008  0.005  0.003  0.000  0.000  0.000  0.000  0.000  0.253
   0.290   -10.049  0.233  0.008  0.005  0.003  0.000  0.000  0.000  0.000  0.000  0.250
   0.311   -10.131  0.230  0.008  0.006  0.003  0.000  0.000  0.000  0.000  0.000  0.246
   0.331   -10.213  0.227  0.007  0.006  0.003  0.000  0.000  0.000  0.000  0.000  0.243
   0.352   -10.294  0.224  0.006  0.006  0.002  0.000  0.000  0.000  0.000  0.000  0.239
   0.373   -10.373  0.221  0.006  0.006  0.002  0.000  0.000  0.000  0.000  0.000  0.236
   0.394   -10.451  0.219  0.006  0.006  0.002  0.000  0.000  0.000  0.000  0.000  0.233
   0.414   -10.527  0.217  0.006  0.006  0.002  0.000  0.000  0.000  0.000  0.000  0.231
   0.435   -10.602  0.215  0.006  0.006  0.002  0.000  0.000  0.000  0.000  0.000  0.228
   0.456   -10.675  0.213  0.006  0.006  0.002  0.000  0.000  0.000  0.000  0.000  0.225
   0.476   -10.745  0.211  0.004  0.006  0.002  0.000  0.000  0.000  0.000  0.000  0.223
   0.497   -10.814  0.209  0.004  0.006  0.002  0.000  0.000  0.000  0.000  0.000  0.221
   0.518   -10.880  0.207  0.004  0.006  0.001  0.000  0.000  0.000  0.000  0.000  0.219
   0.539   -10.945  0.205  0.004  0.006  0.001  0.000  0.000  0.000  0.000  0.000  0.217
   0.559   -11.007  0.203  0.004  0.006  0.001  0.000  0.000  0.000  0.000  0.000  0.215
   0.580   -11.066  0.203  0.004  0.006  0.001  0.000  0.000  0.000  0.000  0.000  0.213
   0.601   -11.123  0.201  0.002  0.006  0.001  0.000  0.000  0.000  0.000  0.000  0.212
   0.621   -11.178  0.199  0.002  0.006  0.001  0.000  0.000  0.000  0.000  0.000  0.210
   0.642   -11.230  0.199  0.002  0.006  0.000  0.000  0.000  0.000  0.000  0.000  0.208
   0.663   -11.280  0.197  0.002  0.006  0.000  0.000  0.000  0.000  0.000  0.000  0.207
   0.684   -11.327  0.197  0.002  0.006  0.000  0.000  0.000  0.000  0.000  0.000  0.206
   0.704   -11.371  0.196  0.002  0.006  0.000  0.000  0.000  0.000  0.000  0.000  0.204
   0.725   -11.412  0.195  0.002  0.006  0.000  0.000  0.000  0.000  0.000  0.000  0.204
   0.746   -11.451  0.194  0.002  0.006  0.000  0.000  0.000  0.000  0.000  0.000  0.202
   0.766   -11.487  0.193  0.002  0.006  0.000  0.000  0.000  0.000  0.000  0.000  0.202
   0.787   -11.520  0.193  0.000  0.006  0.000  0.000  0.000  0.000  0.000  0.000  0.201
   0.808   -11.551  0.192  0.000  0.006  0.000  0.000  0.000  0.000  0.000  0.000  0.200
   0.829   -11.578  0.192  0.000  0.006  0.000  0.000  0.000  0.000  0.000  0.000  0.200
   0.849   -11.603  0.192  0.000  0.006  0.000  0.000  0.000  0.000  0.000  0.000  0.198
   0.870   -11.625  0.191  0.000  0.006  0.000  0.000  0.000  0.000  0.000  0.000  0.198
   0.891   -11.644  0.190  0.000  0.006  0.000  0.000  0.000  0.000  0.000  0.000  0.198
   0.912   -11.660  0.190  0.000  0.006  0.000  0.000  0.000  0.000  0.000  0.000  0.198
   0.932   -11.673  0.190  0.000  0.006  0.000  0.000  0.000  0.000  0.000  0.000  0.198
   0.953   -11.683  0.190  0.000  0.006  0.000  0.000  0.000  0.000  0.000  0.000  0.196
   0.974   -11.691  0.190  0.000  0.006  0.000  0.000  0.000  0.000  0.000  0.000  0.196
   0.994   -11.695  0.190  0.000  0.006  0.000  0.000  0.000  0.000  0.000  0.000  0.196
   1.015   -11.697  0.190  0.000  0.006  0.000  0.000  0.000  0.000  0.000  0.000  0.196
   1.015   -11.697  0.190  0.000  0.006  0.000  0.000  0.000  0.000  0.000  0.000  0.196
   1.033   -11.696  0.190  0.000  0.006  0.000  0.000  0.000  0.000  0.000  0.000  0.196
   1.051   -11.692  0.190  0.000  0.006  0.000  0.000  0.000  0.000  0.000  0.000  0.196
   1.069   -11.687  0.190  0.000  0.006  0.000  0.000  0.000  0.000  0.000  0.000  0.196
   1.087   -11.679  0.190  0.000  0.006  0.000  0.000  0.000  0.000  0.000  0.000  0.198
   1.105   -11.669  0.190  0.000  0.006  0.000  0.000  0.000  0.000  0.000  0.000  0.198
   1.123   -11.657  0.190  0.000  0.006  0.000  0.000  0.000  0.000  0.000  0.000  0.198
   1.141   -11.643  0.191  0.000  0.006  0.000  0.000  0.000  0.000  0.000  0.000  0.198
   1.159   -11.627  0.191  0.000  0.006  0.000  0.000  0.000  0.000  0.000  0.000  0.198
   1.177   -11.608  0.191  0.000  0.006  0.000  0.000  0.000  0.000  0.000  0.000  0.199
   1.195   -11.587  0.192  0.000  0.006  0.000  0.000  0.000  0.000  0.000  0.000  0.200
   1.212   -11.564  0.192  0.000  0.006  0.000  0.000  0.000  0.000  0.000  0.000  0.200
   1.230   -11.539  0.193  0.000  0.006  0.001  0.000  0.000  0.000  0.000  0.000  0.200
   1.248   -11.512  0.193  0.000  0.006  0.001  0.000  0.000  0.000  0.000  0.000  0.201
   1.266   -11.483  0.193  0.000  0.006  0.001  0.000  0.000  0.000  0.000  0.000  0.202
   1.284   -11.452  0.193  0.000  0.006  0.001  0.000  0.000  0.000  0.000  0.000  0.202
   1.302   -11.419  0.195  0.000  0.006  0.001  0.000  0.000  0.000  0.000  0.000  0.203
   1.320   -11.383  0.195  0.000  0.006  0.002  0.000  0.000  0.000  0.000  0.000  0.204
   1.338   -11.346  0.195  0.000  0.006  0.002  0.000  0.000  0.000  0.000  0.000  0.205
   1.356   -11.306  0.197  0.000  0.006  0.002  0.000  0.000  0.000  0.000  0.000  0.206
   1.374   -11.265  0.197  0.000  0.006  0.002  0.000  0.000  0.000  0.000  0.000  0.207
   1.392   -11.222  0.198  0.000  0.006  0.002  0.000  0.000  0.000  0.000  0.000  0.208
   1.410   -11.176  0.199  0.001  0.006  0.002  0.000  0.000  0.000  0.000  0.000  0.209
   1.428   -11.129  0.200  0.002  0.006  0.003  0.000  0.000  0.000  0.000  0.000  0.210
   1.446   -11.081  0.201  0.002  0.006  0.003  0.000  0.000  0.000  0.000  0.000  0.211
   1.464   -11.030  0.202  0.002  0.006  0.003  0.000  0.000  0.000  0.000  0.000  0.213
   1.482   -10.978  0.203  0.002  0.006  0.003  0.000  0.000  0.000  0.000  0.000  0.214
   1.500   -10.924  0.204  0.002  0.006  0.004  0.000  0.000  0.000  0.000  0.000  0.216
   1.518   -10.868  0.206  0.002  0.006  0.004  0.000  0.000  0.000  0.000  0.000  0.217
   1.535   -10.811  0.207  0.002  0.006  0.004  0.000  0.000  0.000  0.000  0.000  0.219
   1.553   -10.753  0.208  0.002  0.006  0.004  0.000  0.000  0.000  0.000  0.000  0.221
   1.571   -10.694  0.210  0.002  0.006  0.005  0.000  0.000  0.000  0.000  0.000  0.223
   1.589   -10.633  0.212  0.002  0.006  0.005  0.000  0.000  0.000  0.000  0.000  0.225
   1.607   -10.572  0.214  0.002  0.006  0.005  0.000  0.000  0.000  0.000  0.000  0.227
   1.625   -10.509  0.216  0.002  0.006  0.005  0.000  0.000  0.000  0.000  0.000  0.231
   1.643   -10.447  0.218  0.002  0.006  0.005  0.000  0.000  0.000  0.000  0.000  0.233
   1.661   -10.383  0.222  0.002  0.006  0.006  0.000  0.000  0.000  0.000  0.000  0.235
   1.679   -10.320  0.224  0.002  0.005  0.006  0.000  0.000  0.000  0.000  0.000  0.239
   1.697   -10.258  0.227  0.002  0.005  0.006  0.000  0.000  0.000  0.000  0.000  0.241
   1.715   -10.196  0.230  0.002  0.005  0.006  0.000  0.000  0.000  0.000  0.000  0.245
   1.733   -10.136  0.234  0.002  0.005  0.006  0.000  0.000  0.000  0.000  0.000  0.249
   1.751   -10.078  0.238  0.002  0.005  0.007  0.000  0.000  0.000  0.000  0.000  0.253
   1.769   -10.022  0.241  0.002  0.005  0.007  0.000  0.000  0.000  0.000  0.000  0.257
   1.787    -9.971  0.245  0.003  0.005  0.007  0.000  0.000  0.000  0.000  0.000  0.261
   1.805    -9.924  0.249  0.003  0.005  0.007  0.000  0.000  0.000  0.000  0.000  0.265
   1.823    -9.883  0.252  0.004  0.005  0.007  0.000  0.000  0.000  0.000  0.000  0.269
   1.841    -9.849  0.255  0.004  0.005  0.007  0.000  0.000  0.000  0.000  0.000  0.272
   1.858    -9.824  0.258  0.004  0.005  0.006  0.000  0.000  0.000  0.000  0.000  0.274
   1.876    -9.809  0.259  0.004  0.005  0.006  0.000  0.000  0.000  0.000  0.000  0.276
   1.894    -9.804  0.260  0.004  0.006  0.006  0.000  0.000  0.000  0.000  0.000  0.276
   1.894    -9.804  0.260  0.004  0.006  0.006  0.000  0.000  0.000  0.000  0.000  0.276
   1.905    -9.803  0.260  0.004  0.006  0.006  0.000  0.000  0.000  0.000  0.000  0.276
   1.915    -9.802  0.260  0.004  0.006  0.006  0.000  0.000  0.000  0.000  0.000  0.276
   1.925    -9.800  0.260  0.004  0.006  0.006  0.000  0.000  0.000  0.000  0.000  0.276
   1.936    -9.798  0.260  0.004  0.005  0.006  0.000  0.000  0.000  0.000  0.000  0.276
   1.946    -9.794  0.260  0.004  0.005  0.006  0.000  0.000  0.000  0.000  0.000  0.276
   1.957    -9.790  0.259  0.004  0.005  0.006  0.000  0.000  0.000  0.000  0.000  0.276
   1.967    -9.785  0.259  0.004  0.005  0.006  0.000  0.000  0.000  0.000  0.000  0.276
   1.977    -9.779  0.259  0.004  0.005  0.006  0.000  0.000  0.000  0.000  0.000  0.276
   1.988    -9.773  0.259  0.004  0.005  0.006  0.000  0.000  0.000  0.000  0.000  0.276
   1.998    -9.766  0.259  0.004  0.004  0.006  0.000  0.000  0.000  0.000  0.000  0.276
   2.008    -9.758  0.259  0.004  0.004  0.006  0.000  0.000  0.000  0.000  0.000  0.275
   2.019    -9.749  0.258  0.004  0.004  0.006  0.000  0.000  0.000  0.000  0.000  0.275
   2.029    -9.740  0.258  0.004  0.004  0.006  0.000  0.000  0.000  0.000  0.000  0.275
   2.039    -9.730  0.258  0.004  0.004  0.006  0.000  0.000  0.000  0.000  0.000  0.275
   2.050    -9.719  0.258  0.004  0.004  0.006  0.000  0.000  0.000  0.000  0.000  0.275
   2.060    -9.707  0.258  0.004  0.004  0.006  0.000  0.000  0.000  0.000  0.000  0.275
   2.070    -9.695  0.258  0.004  0.004  0.007  0.000  0.000  0.000  0.000  0.000  0.275
   2.081    -9.682  0.258  0.004  0.004  0.007  0.000  0.000  0.000  0.000  0.000  0.275
   2.091    -9.668  0.258  0.004  0.004  0.007  0.000  0.000  0.000  0.000  0.000  0.275
   2.102    -9.653  0.258  0.004  0.004  0.007  0.000  0.000  0.000  0.000  0.000  0.274
   2.112    -9.638  0.257  0.004  0.004  0.007  0.000  0.000  0.000  0.000  0.000  0.274
   2.122    -9.622  0.257  0.004  0.004  0.007  0.000  0.000  0.000  0.000  0.000  0.274
   2.133    -9.605  0.257  0.004  0.004  0.007  0.000  0.000  0.000  0.000  0.000  0.274
   2.143    -9.587  0.257  0.004  0.004  0.007  0.000  0.000  0.000  0.000  0.000  0.274
   2.153    -9.569  0.257  0.004  0.004  0.007  0.000  0.000  0.000  0.000  0.000  0.274
   2.164    -9.550  0.257  0.004  0.004  0.007  0.000  0.000  0.000  0.000  0.000  0.274
   2.174    -9.530  0.257  0.004  0.004  0.007  0.000  0.000  0.000  0.000  0.000  0.274
   2.184    -9.510  0.257  0.004  0.004  0.007  0.000  0.000  0.000  0.000  0.000  0.274
   2.195    -9.489  0.257  0.006  0.004  0.007  0.000  0.000  0.000  0.000  0.000  0.274
   2.205    -9.467  0.256  0.006  0.004  0.007  0.000  0.000  0.000  0.000  0.000  0.274
   2.215    -9.445  0.255  0.006  0.004  0.008  0.000  0.000  0.000  0.000  0.000  0.273
   2.226    -9.422  0.255  0.006  0.004  0.008  0.000  0.000  0.000  0.000  0.000  0.273
   2.236    -9.398  0.255  0.006  0.004  0.008  0.000  0.000  0.000  0.000  0.000  0.273
   2.247    -9.373  0.255  0.006  0.004  0.008  0.000  0.000  0.000  0.000  0.000  0.273
   2.257    -9.348  0.255  0.006  0.004  0.008  0.000  0.000  0.000  0.000  0.000  0.273
   2.267    -9.322  0.255  0.006  0.004  0.008  0.000  0.000  0.000  0.000  0.000  0.273
   2.278    -9.296  0.253  0.006  0.004  0.008  0.000  0.000  0.000  0.000  0.000  0.272
   2.288    -9.268  0.253  0.006  0.004  0.008  0.000  0.000  0.000  0.000  0.000  0.271
   2.298    -9.241  0.253  0.006  0.004  0.008  0.000  0.000  0.000  0.000  0.000  0.271
   2.309    -9.212  0.252  0.006  0.003  0.008  0.000  0.000  0.000  0.000  0.000  0.271
   2.319    -9.183  0.251  0.006  0.003  0.008  0.000  0.000  0.000  0.000  0.000  0.269
   2.329    -9.153  0.250  0.006  0.003  0.008  0.000  0.000  0.000  0.000  0.000  0.269
   2.340    -9.123  0.248  0.006  0.003  0.008  0.000  0.000  0.000  0.000  0.000  0.267
   2.350    -9.092  0.246  0.006  0.003  0.007  0.000  0.000  0.000  0.000  0.000  0.265
   2.360    -9.061  0.243  0.006  0.002  0.007  0.000  0.000  0.000  0.000  0.000  0.261
   2.371    -9.029  0.238  0.006  0.002  0.007  0.000  0.000  0.000  0.000  0.000  0.255
   2.381    -8.997  0.226  0.006  0.002  0.006  0.000  0.000  0.000  0.000  0.000  0.243
   2.392    -8.965  0.189  0.006  0.002  0.006  0.000  0.000  0.000  0.000  0.000  0.203
   2.402    -8.941  0.024  0.000  0.000  0.000  0.000  0.000  0.000  0.000  0.000  0.026
   2.402    -8.941  0.024  0.000  0.000  0.000  0.000  0.000  0.000  0.000  0.000  0.026
   2.423    -8.992  0.266  0.008  0.003  0.008  0.000  0.000  0.000  0.000  0.000  0.286
   2.443    -9.064  0.276  0.008  0.004  0.007  0.000  0.000  0.000  0.000  0.000  0.297
   2.464    -9.139  0.275  0.009  0.004  0.007  0.000  0.000  0.000  0.000  0.000  0.296
   2.485    -9.217  0.272  0.009  0.004  0.006  0.000  0.000  0.000  0.000  0.000  0.293
   2.505    -9.296  0.268  0.009  0.004  0.006  0.000  0.000  0.000  0.000  0.000  0.289
   2.526    -9.377  0.264  0.009  0.004  0.005  0.000  0.000  0.000  0.000  0.000  0.283
   2.547    -9.460  0.260  0.008  0.004  0.005  0.000  0.000  0.000  0.000  0.000  0.279
   2.568    -9.543  0.256  0.008  0.004  0.005  0.000  0.000  0.000  0.000  0.000  0.275
   2.588    -9.627  0.252  0.008  0.004  0.004  0.000  0.000  0.000  0.000  0.000  0.271
   2.609    -9.712  0.248  0.008  0.005  0.004  0.000  0.000  0.000  0.000  0.000  0.266
   2.630    -9.796  0.244  0.008  0.005  0.004  0.000  0.000  0.000  0.000  0.000  0.261
   2.650    -9.881  0.240  0.008  0.005  0.003  0.000  0.000  0.000  0.000  0.000  0.257
   2.671    -9.965  0.237  0.008  0.005  0.003  0.000  0.000  0.000  0.000  0.000  0.253
   2.692   -10.049  0.233  0.008  0.005  0.003  0.000  0.000  0.000  0.000  0.000  0.250
   2.713   -10.131  0.230  0.008  0.006  0.003  0.000  0.000  0.000  0.000  0.000  0.246
   2.733   -10.213  0.227  0.007  0.006  0.003  0.000  0.000  0.000  0.000  0.000  0.243
   2.754   -10.294  0.224  0.006  0.006  0.002  0.000  0.000  0.000  0.000  0.000  0.239
   2.775   -10.373  0.221  0.006  0.006  0.002  0.000  0.000  0.000  0.000  0.000  0.236
   2.796   -10.451  0.219  0.006  0.006  0.002  0.000  0.000  0.000  0.000  0.000  0.233
   2.816   -10.527  0.217  0.006  0.006  0.002  0.000  0.000  0.000  0.000  0.000  0.231
   2.837   -10.602  0.215  0.006  0.006  0.002  0.000  0.000  0.000  0.000  0.000  0.228
   2.858   -10.675  0.213  0.006  0.006  0.002  0.000  0.000  0.000  0.000  0.000  0.225
   2.878   -10.745  0.211  0.004  0.006  0.002  0.000  0.000  0.000  0.000  0.000  0.223
   2.899   -10.814  0.209  0.004  0.006  0.002  0.000  0.000  0.000  0.000  0.000  0.221
   2.920   -10.880  0.207  0.004  0.006  0.001  0.000  0.000  0.000  0.000  0.000  0.219
   2.941   -10.945  0.205  0.004  0.006  0.001  0.000  0.000  0.000  0.000  0.000  0.217
   2.961   -11.007  0.203  0.004  0.006  0.001  0.000  0.000  0.000  0.000  0.000  0.215
   2.982   -11.066  0.203  0.004  0.006  0.001  0.000  0.000  0.000  0.000  0.000  0.213
   3.003   -11.123  0.201  0.002  0.006  0.001  0.000  0.000  0.000  0.000  0.000  0.212
   3.023   -11.178  0.199  0.002  0.006  0.001  0.000  0.000  0.000  0.000  0.000  0.210
   3.044   -11.230  0.199  0.002  0.006  0.000  0.000  0.000  0.000  0.000  0.000  0.208
   3.065   -11.280  0.197  0.002  0.006  0.000  0.000  0.000  0.000  0.000  0.000  0.207
   3.086   -11.327  0.197  0.002  0.006  0.000  0.000  0.000  0.000  0.000  0.000  0.206
   3.106   -11.371  0.196  0.002  0.006  0.000  0.000  0.000  0.000  0.000  0.000  0.204
   3.127   -11.412  0.195  0.002  0.006  0.000  0.000  0.000  0.000  0.000  0.000  0.204
   3.148   -11.451  0.194  0.002  0.006  0.000  0.000  0.000  0.000  0.000  0.000  0.202
   3.168   -11.487  0.193  0.002  0.006  0.000  0.000  0.000  0.000  0.000  0.000  0.202
   3.189   -11.520  0.193  0.000  0.006  0.000  0.000  0.000  0.000  0.000  0.000  0.201
   3.210   -11.551  0.192  0.000  0.006  0.000  0.000  0.000  0.000  0.000  0.000  0.200
   3.231   -11.578  0.192  0.000  0.006  0.000  0.000  0.000  0.000  0.000  0.000  0.200
   3.251   -11.603  0.191  0.000  0.006  0.000  0.000  0.000  0.000  0.000  0.000  0.198
   3.272   -11.625  0.191  0.000  0.006  0.000  0.000  0.000  0.000  0.000  0.000  0.198
   3.293   -11.644  0.190  0.000  0.006  0.000  0.000  0.000  0.000  0.000  0.000  0.198
   3.313   -11.660  0.190  0.000  0.006  0.000  0.000  0.000  0.000  0.000  0.000  0.198
   3.334   -11.673  0.190  0.000  0.006  0.000  0.000  0.000  0.000  0.000  0.000  0.198
   3.355   -11.683  0.190  0.000  0.006  0.000  0.000  0.000  0.000  0.000  0.000  0.196
   3.376   -11.691  0.190  0.000  0.006  0.000  0.000  0.000  0.000  0.000  0.000  0.196
   3.396   -11.695  0.190  0.000  0.006  0.000  0.000  0.000  0.000  0.000  0.000  0.196
   3.417   -11.697  0.190  0.000  0.006  0.000  0.000  0.000  0.000  0.000  0.000  0.196
# Band-Index:    2
   3.417   -11.697 -0.190  0.000 -0.006  0.000  0.000  0.000  0.000  0.000  0.000 -0.196
   3.396   -11.695 -0.190  0.000 -0.006  0.000  0.000  0.000  0.000  0.000  0.000 -0.196
   3.376   -11.691 -0.190  0.000 -0.006  0.000  0.000  0.000  0.000  0.000  0.000 -0.196
   3.355   -11.683 -0.190  0.000 -0.006  0.000  0.000  0.000  0.000  0.000  0.000 -0.196
   3.334   -11.673 -0.190  0.000 -0.006  0.000  0.000  0.000  0.000  0.000  0.000 -0.198
   3.313   -11.660 -0.190  0.000 -0.006  0.000  0.000  0.000  0.000  0.000  0.000 -0.198
   3.293   -11.644 -0.190  0.000 -0.006  0.000  0.000  0.000  0.000  0.000  0.000 -0.198
   3.272   -11.625 -0.191  0.000 -0.006  0.000  0.000  0.000  0.000  0.000  0.000 -0.198
   3.251   -11.603 -0.191  0.000 -0.006  0.000  0.000  0.000  0.000  0.000  0.000 -0.198
   3.231   -11.578 -0.192  0.000 -0.006  0.000  0.000  0.000  0.000  0.000  0.000 -0.200
   3.210   -11.551 -0.192  0.000 -0.006  0.000  0.000  0.000  0.000  0.000  0.000 -0.200
   3.189   -11.520 -0.193  0.000 -0.006  0.000  0.000  0.000  0.000  0.000  0.000 -0.201
   3.168   -11.487 -0.193 -0.002 -0.006  0.000  0.000  0.000  0.000  0.000  0.000 -0.202
   3.148   -11.451 -0.194 -0.002 -0.006  0.000  0.000  0.000  0.000  0.000  0.000 -0.202
   3.127   -11.412 -0.195 -0.002 -0.006  0.000  0.000  0.000  0.000  0.000  0.000 -0.204
   3.106   -11.371 -0.196 -0.002 -0.006  0.000  0.000  0.000  0.000  0.000  0.000 -0.204
   3.086   -11.327 -0.197 -0.002 -0.006  0.000  0.000  0.000  0.000  0.000  0.000 -0.206
   3.065   -11.280 -0.197 -0.002 -0.006  0.000  0.000  0.000  0.000  0.000  0.000 -0.207
   3.044   -11.230 -0.199 -0.002 -0.006  0.000  0.000  0.000  0.000  0.000  0.000 -0.208
   3.023   -11.178 -0.199 -0.002 -0.006 -0.001  0.000  0.000  0.000  0.000  0.000 -0.210
   3.003   -11.123 -0.201 -0.002 -0.006 -0.001  0.000  0.000  0.000  0.000  0.000 -0.212
   2.982   -11.066 -0.203 -0.004 -0.006 -0.001  0.000  0.000  0.000  0.000  0.000 -0.213
   2.961   -11.007 -0.203 -0.004 -0.006 -0.001  0.000  0.000  0.000  0.000  0.000 -0.215
