#K-Path     Energy     s    py    pz    px    dxy    dyz    dz2    dxz    dx2-y2    tot
# Band-Index:    1
   0.000   -10.503 -0.208 -0.004 -0.001 -0.004 -0.001  0.000  0.000  0.000 -0.001 -0.219
   0.019   -10.539  0.011  0.000  0.000  0.001  0.000  0.000  0.000  0.000  0.000  0.012
   0.039   -10.590  0.020  0.000  0.001  0.000  0.000  0.000  0.000  0.000  0.000  0.021
   0.058   -10.644  0.025  0.001  0.000  0.001  0.000  0.000  0.000  0.000  0.000  0.027
   0.078   -10.699  0.030  0.001  0.000  0.000  0.000  0.000  0.000  0.000  0.000  0.032
   0.097   -10.757  0.034  0.001  0.000  0.000  0.000  0.000  0.000  0.000  0.000  0.036
   0.117   -10.815  0.039  0.001  0.000  0.000  0.000  0.000  0.000  0.000  0.000  0.041
   0.136   -10.874  0.043  0.001  0.000  0.000  0.000  0.000  0.000  0.000  0.000  0.045
   0.156   -10.934  0.048  0.001  0.000  0.001  0.000  0.000  0.000  0.000  0.000  0.050
   0.175   -10.995  0.052  0.001  0.000  0.001  0.000  0.000  0.000  0.000  0.000  0.055
   0.195   -11.056  0.056  0.001  0.000  0.001  0.000  0.000  0.000  0.000  0.000  0.059
   0.214   -11.118  0.059  0.001  0.000  0.001  0.000  0.000  0.000  0.000  0.000  0.062
   0.234   -11.179  0.064  0.001  0.001  0.001  0.000  0.000  0.000  0.000  0.000  0.066
   0.253   -11.241  0.068  0.001  0.001  0.001  0.000  0.000  0.000  0.000  0.000  0.072
   0.273   -11.302  0.072  0.001  0.001  0.001  0.000  0.000  0.000  0.000  0.000  0.075
   0.292   -11.364  0.075  0.001  0.001  0.001  0.000  0.000  0.000  0.000  0.000  0.079
   0.312   -11.424  0.077  0.001  0.001  0.001  0.000  0.000  0.000  0.000  0.000  0.081
   0.331   -11.484  0.082  0.001  0.002  0.001  0.000  0.000  0.000  0.000  0.000  0.085
   0.351   -11.544  0.085  0.002  0.002  0.001  0.000  0.000  0.000  0.000  0.000  0.089
   0.370   -11.602  0.088  0.002  0.002  0.001  0.000  0.000  0.000  0.000  0.000  0.091
   0.390   -11.660  0.091  0.002  0.002  0.001  0.000  0.000  0.000  0.000  0.000  0.095
   0.409   -11.717  0.094  0.002  0.002  0.000  0.000  0.000  0.000  0.000  0.000  0.098
   0.429   -11.772  0.096  0.002  0.002  0.000  0.000  0.000  0.000  0.000  0.000  0.101
   0.448   -11.826  0.099  0.002  0.002  0.000  0.000  0.000  0.000  0.000  0.000  0.103
   0.467   -11.879  0.101  0.002  0.002  0.000  0.000  0.000  0.000  0.000  0.000  0.106
   0.487   -11.930  0.104  0.002  0.002  0.000  0.000  0.000  0.000  0.000  0.000  0.108
   0.506   -11.980  0.106  0.002  0.002  0.000  0.000  0.000  0.000  0.000  0.000  0.111
   0.526   -12.028  0.108  0.002  0.002  0.000  0.000  0.000  0.000  0.000  0.000  0.113
   0.545   -12.074  0.111  0.002  0.002  0.000  0.000  0.000  0.000  0.000  0.000  0.115
   0.565   -12.119  0.113  0.002  0.002  0.000  0.000  0.000  0.000  0.000  0.000  0.117
   0.584   -12.162  0.115  0.001  0.002  0.000  0.000  0.000  0.000  0.000  0.000  0.119
   0.604   -12.203  0.115  0.001  0.002  0.000  0.000  0.000  0.000  0.000  0.000  0.120
   0.623   -12.242  0.117  0.001  0.002  0.000  0.000  0.000  0.000  0.000  0.000  0.122
   0.643   -12.279  0.120  0.000  0.002  0.000  0.000  0.000  0.000  0.000  0.000  0.124
   0.662   -12.314  0.121  0.000  0.003  0.000  0.000  0.000  0.000  0.000  0.000  0.125
   0.682   -12.347  0.122  0.000  0.004  0.000  0.000  0.000  0.000  0.000  0.000  0.126
   0.701   -12.378  0.123  0.000  0.004  0.000  0.000  0.000  0.000  0.000  0.000  0.127
   0.721   -12.406  0.124  0.000  0.004  0.000  0.000  0.000  0.000  0.000  0.000  0.128
   0.740   -12.433  0.126  0.000  0.004  0.000  0.000  0.000  0.000  0.000  0.000  0.130
   0.760   -12.457  0.128  0.000  0.004  0.000  0.000  0.000  0.000  0.000  0.000  0.132
   0.779   -12.479  0.128  0.000  0.004  0.000  0.000  0.000  0.000  0.000  0.000  0.132
   0.799   -12.499  0.128  0.000  0.004  0.000  0.000  0.000  0.000  0.000  0.000  0.132
   0.818   -12.516  0.130  0.000  0.004  0.000  0.000  0.000  0.000  0.000  0.000  0.134
   0.838   -12.532  0.130  0.000  0.004  0.000  0.000  0.000  0.000  0.000  0.000  0.134
   0.857   -12.545  0.132  0.000  0.004  0.000  0.000  0.000  0.000  0.000  0.000  0.134
   0.876   -12.555  0.132  0.000  0.004  0.000  0.000  0.000  0.000  0.000  0.000  0.136
   0.896   -12.563  0.130  0.000  0.004  0.000  0.000  0.000  0.000  0.000  0.000  0.134
   0.915   -12.569  0.132  0.000  0.004  0.000  0.000  0.000  0.000  0.000  0.000  0.134
   0.935   -12.573  0.132  0.000  0.004  0.000  0.000  0.000  0.000  0.000  0.000  0.136
   0.954   -12.574  0.132  0.000  0.004  0.000  0.000  0.000  0.000  0.000  0.000  0.136
   0.954   -12.574  0.134  0.000  0.004  0.000  0.000  0.000  0.000  0.000  0.000  0.138
   0.971   -12.573  0.128  0.000  0.004  0.000  0.000  0.000  0.000  0.000  0.000  0.132
   0.988   -12.570  0.124  0.000  0.004  0.000  0.000  0.000  0.000  0.000  0.000  0.128
   1.005   -12.566  0.122  0.000  0.004  0.000  0.000  0.000  0.000  0.000  0.000  0.124
   1.022   -12.560  0.118  0.000  0.004  0.000  0.000  0.000  0.000  0.000  0.000  0.122
   1.039   -12.552  0.114  0.000  0.004  0.000  0.000  0.000  0.000  0.000  0.000  0.118
   1.056   -12.542  0.110  0.000  0.004  0.000  0.000  0.000  0.000  0.000  0.000  0.112
   1.072   -12.531  0.106  0.000  0.002  0.000  0.000  0.000  0.000  0.000  0.000  0.108
   1.089   -12.518  0.102  0.000  0.002  0.000  0.000  0.000  0.000  0.000  0.000  0.106
   1.106   -12.503  0.098  0.000  0.002  0.000  0.000  0.000  0.000  0.000  0.000  0.100
   1.123   -12.486  0.094  0.000  0.002  0.000  0.000  0.000  0.000  0.000  0.000  0.096
   1.140   -12.468  0.090  0.000  0.002  0.000  0.000  0.000  0.000  0.000  0.000  0.092
   1.157   -12.448  0.086  0.000  0.002  0.000  0.000  0.000  0.000  0.000  0.000  0.088
   1.174   -12.426  0.080  0.000  0.002  0.000  0.000  0.000  0.000  0.000  0.000  0.084
   1.190   -12.403  0.076  0.000  0.002  0.000  0.000  0.000  0.000  0.000  0.000  0.078
   1.207   -12.378  0.072  0.000  0.002  0.000  0.000  0.000  0.000  0.000  0.000  0.074
   1.224   -12.352  0.068  0.000  0.002  0.000  0.000  0.000  0.000  0.000  0.000  0.070
   1.241   -12.323  0.064  0.000  0.002  0.000  0.000  0.000  0.000  0.000  0.000  0.066
   1.258   -12.294  0.060  0.000  0.002  0.000  0.000  0.000  0.000  0.000  0.000  0.062
   1.275   -12.263  0.054  0.000  0.002  0.000  0.000  0.000  0.000  0.000  0.000  0.056
   1.292   -12.230  0.050  0.000  0.002  0.000  0.000  0.000  0.000  0.000  0.000  0.052
   1.309   -12.196  0.046  0.000  0.002  0.000  0.000  0.000  0.000  0.000  0.000  0.048
   1.325   -12.160  0.042  0.000  0.002  0.000  0.000  0.000  0.000  0.000  0.000  0.042
   1.342   -12.124  0.036  0.000  0.000  0.000  0.000  0.000  0.000  0.000  0.000  0.038
   1.359   -12.085  0.032  0.000  0.000  0.000  0.000  0.000  0.000  0.000  0.000  0.034
   1.376   -12.046  0.028  0.000  0.000  0.000  0.000  0.000  0.000  0.000  0.000  0.030
   1.393   -12.005  0.024  0.000  0.000  0.000  0.000  0.000  0.000  0.000  0.000  0.024
   1.410   -11.964  0.022  0.000  0.000  0.000  0.000  0.000  0.000  0.000  0.000  0.022
   1.427   -11.921  0.016  0.000  0.000  0.000  0.000  0.000  0.000  0.000  0.000  0.016
   1.443   -11.877  0.012  0.000  0.000  0.000  0.000  0.000  0.000  0.000  0.000  0.012
   1.460   -11.833  0.008  0.000  0.000  0.000  0.000  0.000  0.000  0.000  0.000  0.008
   1.477   -11.788  0.004  0.000  0.000  0.000  0.000  0.000  0.000  0.000  0.000  0.006
   1.494   -11.742  0.002  0.000  0.000  0.000  0.000  0.000  0.000  0.000  0.000  0.002
   1.511   -11.695 -0.002  0.000  0.000  0.000  0.000  0.000  0.000  0.000  0.000 -0.002
   1.528   -11.649 -0.002  0.000  0.000  0.000  0.000  0.000  0.000  0.000  0.000 -0.002
   1.545   -11.602 -0.004  0.000  0.000  0.000  0.000  0.000  0.000  0.000  0.000 -0.004
   1.561   -11.556 -0.006  0.000  0.000  0.000  0.000  0.000  0.000  0.000  0.000 -0.006
   1.578   -11.510 -0.006  0.000  0.000  0.000  0.000  0.000  0.000  0.000  0.000 -0.006
   1.595   -11.464 -0.004  0.000  0.000  0.000  0.000  0.000  0.000  0.000  0.000 -0.004
   1.612   -11.420 -0.004  0.000  0.000  0.000  0.000  0.000  0.000  0.000  0.000 -0.004
   1.629   -11.377  0.002  0.000  0.000  0.000  0.000  0.000  0.000  0.000  0.000  0.002
   1.646   -11.335  0.006  0.000  0.000  0.000  0.000  0.000  0.000  0.000  0.000  0.006
   1.663   -11.297  0.014  0.000  0.000  0.000  0.000  0.000  0.000  0.000  0.000  0.014
   1.680   -11.261  0.022  0.000  0.002  0.000  0.000  0.000  0.000  0.000  0.000  0.024
   1.696   -11.229  0.032  0.000  0.002  0.000  0.000  0.000  0.000  0.000  0.000  0.034
   1.713   -11.202  0.046  0.000  0.002  0.000  0.000  0.000  0.000  0.000  0.000  0.048
   1.730   -11.179  0.062  0.000  0.002  0.001  0.000  0.000  0.000  0.000  0.000  0.064
   1.747   -11.163  0.078  0.000  0.002  0.002  0.000  0.000  0.000  0.000  0.000  0.082
   1.764   -11.153  0.094  0.000  0.002  0.002  0.000  0.000  0.000  0.000  0.000  0.100
   1.781   -11.149  0.112  0.000  0.002  0.002  0.000  0.000  0.000  0.000  0.000  0.118
   1.781   -11.149  0.112  0.000  0.002  0.002  0.000  0.000  0.000  0.000  0.000  0.118
   1.790   -11.149  0.117  0.000  0.002  0.002  0.000  0.000  0.000  0.000  0.000  0.123
   1.800   -11.148  0.122  0.000  0.002  0.002  0.000  0.000  0.000  0.000  0.000  0.128
   1.810   -11.147  0.128  0.000  0.002  0.002  0.000  0.000  0.000  0.000  0.000  0.134
   1.820   -11.145  0.131  0.000  0.002  0.002  0.000  0.000  0.000  0.000  0.000  0.138
   1.829   -11.142  0.136  0.000  0.002  0.002  0.000  0.000  0.000  0.000  0.000  0.143
   1.839   -11.139  0.141  0.000  0.002  0.002  0.000  0.000  0.000  0.000  0.000  0.148
   1.849   -11.135  0.146  0.001  0.002  0.003  0.000  0.000  0.000  0.000  0.000  0.153
   1.859   -11.130  0.150  0.001  0.002  0.003  0.000  0.000  0.000  0.000  0.000  0.157
   1.868   -11.125  0.154  0.001  0.002  0.003  0.000  0.000  0.000  0.000  0.000  0.162
   1.878   -11.120  0.158  0.001  0.002  0.003  0.000  0.000  0.000  0.000  0.000  0.166
   1.888   -11.114  0.163  0.001  0.002  0.003  0.000  0.000  0.000  0.000  0.000  0.170
   1.898   -11.107  0.167  0.001  0.002  0.003  0.000  0.000  0.000  0.000  0.000  0.174
   1.907   -11.100  0.171  0.001  0.002  0.003  0.000  0.000  0.000  0.000  0.000  0.179
   1.917   -11.092  0.175  0.001  0.002  0.003  0.000  0.000  0.000  0.000  0.000  0.183
   1.927   -11.083  0.178  0.001  0.002  0.003  0.000  0.000  0.000  0.000  0.000  0.187
   1.937   -11.074  0.183  0.001  0.002  0.003  0.000  0.000  0.000  0.000  0.000  0.191
   1.946   -11.064  0.186  0.001  0.002  0.003  0.000  0.000  0.000  0.000  0.000  0.195
   1.956   -11.054  0.190  0.001  0.002  0.003  0.000  0.000  0.000  0.000  0.000  0.199
   1.966   -11.044  0.194  0.001  0.002  0.003  0.000  0.000  0.000  0.000  0.000  0.202
   1.975   -11.032  0.197  0.001  0.002  0.003  0.000  0.000  0.000  0.000  0.000  0.207
   1.985   -11.020  0.200  0.001  0.002  0.004  0.000  0.000  0.000  0.000  0.000  0.209
   1.995   -11.008  0.203  0.001  0.002  0.004  0.000  0.000  0.000  0.000  0.000  0.213
   2.005   -10.995  0.207  0.001  0.002  0.004  0.000  0.000  0.000  0.000  0.000  0.217
   2.014   -10.981  0.210  0.002  0.002  0.004  0.000  0.000  0.000  0.000  0.000  0.220
   2.024   -10.967  0.213  0.002  0.002  0.004  0.000  0.000  0.000  0.000  0.000  0.224
   2.034   -10.953  0.217  0.003  0.002  0.004  0.000  0.000  0.000  0.000  0.000  0.227
   2.044   -10.938  0.219  0.003  0.002  0.004  0.000  0.000  0.000  0.000  0.000  0.230
   2.053   -10.922  0.222  0.003  0.002  0.004  0.000  0.000  0.000  0.000  0.000  0.233
   2.063   -10.906  0.224  0.003  0.002  0.004  0.000  0.000  0.000  0.000  0.000  0.236
   2.073   -10.889  0.228  0.003  0.002  0.004  0.000  0.000  0.000  0.000  0.000  0.239
   2.083   -10.872  0.230  0.003  0.002  0.004  0.000  0.000  0.000  0.000  0.000  0.241
   2.092   -10.854  0.233  0.003  0.002  0.004  0.000  0.000  0.000  0.000  0.000  0.244
   2.102   -10.836  0.235  0.003  0.002  0.004  0.000  0.000  0.000  0.000  0.000  0.248
   2.112   -10.817  0.237  0.003  0.002  0.004  0.000  0.000  0.000  0.000  0.000  0.249
   2.122   -10.798  0.240  0.004  0.002  0.004  0.000  0.000  0.000  0.000  0.000  0.252
   2.131   -10.778  0.242  0.004  0.002  0.005  0.000  0.000  0.000  0.000  0.000  0.254
   2.141   -10.758  0.244  0.004  0.002  0.005  0.000  0.000  0.000  0.000  0.000  0.257
   2.151   -10.738  0.246  0.004  0.002  0.005  0.000  0.000  0.000  0.000  0.000  0.259
   2.161   -10.717  0.248  0.004  0.002  0.005  0.000  0.000  0.000  0.000  0.000  0.261
   2.170   -10.695  0.250  0.004  0.002  0.005  0.000  0.000  0.000  0.000  0.000  0.263
   2.180   -10.673  0.252  0.004  0.002  0.005  0.000  0.000  0.000  0.000  0.000  0.264
   2.190   -10.651  0.254  0.005  0.002  0.005  0.000  0.000  0.000  0.000  0.000  0.266
   2.199   -10.629  0.255  0.005  0.002  0.005  0.000  0.000  0.000  0.000  0.000  0.268
   2.209   -10.606  0.256  0.004  0.002  0.006  0.000  0.000  0.000  0.000  0.000  0.269
   2.219   -10.582  0.257  0.004  0.001  0.005  0.000  0.000  0.000  0.001  0.000  0.270
   2.229   -10.559  0.258  0.005  0.001  0.005  0.000  0.001  0.000  0.001  0.000  0.271
   2.238   -10.536  0.257  0.005  0.002  0.005  0.000  0.001  0.000  0.001  0.000  0.270
   2.248   -10.515  0.251  0.005  0.002  0.006  0.001  0.001  0.000  0.001  0.000  0.264
   2.258   -10.503 -0.207 -0.004 -0.001 -0.004 -0.001  0.000  0.000  0.000 -0.001 -0.218
   2.258   -10.503 -0.208 -0.004 -0.001 -0.004 -0.001  0.000  0.000  0.000 -0.001 -0.219
   2.277   -10.539  0.012  0.000  0.000  0.001  0.000  0.000  0.000  0.000  0.000  0.012
   2.297   -10.590  0.019  0.000  0.001  0.000  0.000  0.000  0.000  0.000  0.000  0.019
   2.316   -10.644  0.025  0.001  0.000  0.001  0.000  0.000  0.000  0.000  0.000  0.027
   2.336   -10.699  0.030  0.001  0.000  0.000  0.000  0.000  0.000  0.000  0.000  0.032
   2.355   -10.757  0.034  0.001  0.000  0.000  0.000  0.000  0.000  0.000  0.000  0.036
   2.375   -10.815  0.040  0.001  0.000  0.000  0.000  0.000  0.000  0.000  0.000  0.041
   2.394   -10.874  0.043  0.001  0.000  0.000  0.000  0.000  0.000  0.000  0.000  0.045
   2.414   -10.934  0.048  0.001  0.000  0.001  0.000  0.000  0.000  0.000  0.000  0.050
   2.433   -10.995  0.052  0.001  0.000  0.001  0.000  0.000  0.000  0.000  0.000  0.055
   2.453   -11.056  0.056  0.001  0.000  0.001  0.000  0.000  0.000  0.000  0.000  0.059
   2.472   -11.118  0.060  0.001  0.000  0.001  0.000  0.000  0.000  0.000  0.000  0.063
   2.492   -11.179  0.064  0.001  0.001  0.001  0.000  0.000  0.000  0.000  0.000  0.068
   2.511   -11.241  0.068  0.001  0.001  0.001  0.000  0.000  0.000  0.000  0.000  0.071
   2.531   -11.302  0.072  0.001  0.001  0.001  0.000  0.000  0.000  0.000  0.000  0.075
   2.550   -11.364  0.074  0.001  0.001  0.001  0.000  0.000  0.000  0.000  0.000  0.079
   2.570   -11.424  0.079  0.001  0.001  0.001  0.000  0.000  0.000  0.000  0.000  0.082
   2.589   -11.484  0.082  0.001  0.002  0.001  0.000  0.000  0.000  0.000  0.000  0.085
   2.609   -11.544  0.085  0.002  0.002  0.001  0.000  0.000  0.000  0.000  0.000  0.088
   2.628   -11.602  0.088  0.002  0.002  0.001  0.000  0.000  0.000  0.000  0.000  0.093
   2.647   -11.660  0.091  0.002  0.002  0.001  0.000  0.000  0.000  0.000  0.000  0.095
   2.667   -11.717  0.094  0.002  0.002  0.000  0.000  0.000  0.000  0.000  0.000  0.098
   2.686   -11.772  0.097  0.002  0.002  0.000  0.000  0.000  0.000  0.000  0.000  0.101
   2.706   -11.826  0.099  0.002  0.002  0.000  0.000  0.000  0.000  0.000  0.000  0.103
   2.725   -11.879  0.101  0.002  0.002  0.000  0.000  0.000  0.000  0.000  0.000  0.106
   2.745   -11.930  0.104  0.002  0.002  0.000  0.000  0.000  0.000  0.000  0.000  0.108
   2.764   -11.980  0.106  0.002  0.002  0.000  0.000  0.000  0.000  0.000  0.000  0.110
   2.784   -12.028  0.108  0.002  0.002  0.000  0.000  0.000  0.000  0.000  0.000  0.113
   2.803   -12.074  0.110  0.002  0.002  0.000  0.000  0.000  0.000  0.000  0.000  0.115
   2.823   -12.119  0.113  0.002  0.002  0.000  0.000  0.000  0.000  0.000  0.000  0.117
   2.842   -12.162  0.115  0.001  0.002  0.000  0.000  0.000  0.000  0.000  0.000  0.119
   2.862   -12.203  0.117  0.001  0.002  0.000  0.000  0.000  0.000  0.000  0.000  0.121
   2.881   -12.242  0.117  0.001  0.002  0.000  0.000  0.000  0.000  0.000  0.000  0.122
   2.901   -12.279  0.119  0.000  0.002  0.000  0.000  0.000  0.000  0.000  0.000  0.124
   2.920   -12.314  0.121  0.000  0.003  0.000  0.000  0.000  0.000  0.000  0.000  0.125
   2.940   -12.347  0.122  0.000  0.004  0.000  0.000  0.000  0.000  0.000  0.000  0.126
   2.959   -12.378  0.124  0.000  0.004  0.000  0.000  0.000  0.000  0.000  0.000  0.128
   2.979   -12.406  0.125  0.000  0.004  0.000  0.000  0.000  0.000  0.000  0.000  0.128
   2.998   -12.433  0.126  0.000  0.004  0.000  0.000  0.000  0.000  0.000  0.000  0.130
   3.018   -12.457  0.127  0.000  0.004  0.000  0.000  0.000  0.000  0.000  0.000  0.131
   3.037   -12.479  0.128  0.000  0.004  0.000  0.000  0.000  0.000  0.000  0.000  0.132
   3.057   -12.499  0.128  0.000  0.004  0.000  0.000  0.000  0.000  0.000  0.000  0.132
   3.076   -12.516  0.130  0.000  0.004  0.000  0.000  0.000  0.000  0.000  0.000  0.134
   3.095   -12.532  0.130  0.000  0.004  0.000  0.000  0.000  0.000  0.000  0.000  0.134
   3.115   -12.545  0.130  0.000  0.004  0.000  0.000  0.000  0.000  0.000  0.000  0.134
   3.134   -12.555  0.131  0.000  0.004  0.000  0.000  0.000  0.000  0.000  0.000  0.134
   3.154   -12.563  0.132  0.000  0.004  0.000  0.000  0.000  0.000  0.000  0.000  0.136
   3.173   -12.569  0.132  0.000  0.004  0.000  0.000  0.000  0.000  0.000  0.000  0.136
   3.193   -12.573  0.132  0.000  0.004  0.000  0.000  0.000  0.000  0.000  0.000  0.136
   3.212   -12.574  0.132  0.000  0.004  0.000  0.000  0.000  0.000  0.000  0.000  0.136
# Band-Index:    2
   3.212   -12.574 -0.132  0.000 -0.004  0.000  0.000  0.000  0.000  0.000  0.000 -0.136
   3.193   -12.573 -0.132  0.000 -0.004  0.000  0.000  0.000  0.000  0.000  0.000 -0.136
   3.173   -12.569 -0.132  0.000 -0.004  0.000  0.000  0.000  0.000  0.000  0.000 -0.136
   3.154   -12.563 -0.132  0.000 -0.004  0.000  0.000  0.000  0.000  0.000  0.000 -0.136
   3.134   -12.555 -0.131  0.000 -0.004  0.000  0.000  0.000  0.000  0.000  0.000 -0.134
   3.115   -12.545 -0.130  0.000 -0.004  0.000  0.000  0.000  0.000  0.000  0.000 -0.134
   3.095   -12.532 -0.130  0.000 -0.004  0.000  0.000  0.000  0.000  0.000  0.000 -0.134
   3.076   -12.516 -0.130  0.000 -0.004  0.000  0.000  0.000  0.000  0.000  0.000 -0.134
   3.057   -12.499 -0.128  0.000 -0.004  0.000  0.000  0.000  0.000  0.000  0.000 -0.132
   3.037   -12.479 -0.128  0.000 -0.004  0.000  0.000  0.000  0.000  0.000  0.000 -0.132
   3.018   -12.457 -0.127  0.000 -0.004  0.000  0.000  0.000  0.000  0.000  0.000 -0.131
   2.998   -12.433 -0.126  0.000 -0.004  0.000  0.000  0.000  0.000  0.000  0.000 -0.130
   2.979   -12.406 -0.125  0.000 -0.004  0.000  0.000  0.000  0.000  0.000  0.000 -0.128
   2.959   -12.378 -0.124  0.000 -0.004  0.000  0.000  0.000  0.000  0.000  0.000 -0.128
   2.940   -12.347 -0.122  0.000 -0.004  0.000  0.000  0.000  0.000  0.000  0.000 -0.126
   2.920   -12.314 -0.121  0.000 -0.003  0.000  0.000  0.000  0.000  0.000  0.000 -0.125
   2.901   -12.279 -0.119  0.000 -0.002  0.000  0.000  0.000  0.000  0.000  0.000 -0.124
   2.881   -12.242 -0.117 -0.001 -0.002  0.000  0.000  0.000  0.000  0.000  0.000 -0.122
   2.862   -12.203 -0.117 -0.001 -0.002  0.000  0.000  0.000  0.000  0.000  0.000 -0.121
   2.842   -12.162 -0.115 -0.001 -0.002  0.000  0.000  0.000  0.000  0.000  0.000 -0.119
   2.823   -12.119 -0.113 -0.002 -0.002  0.000  0.000  0.000  0.000  0.000  0.000 -0.117
   2.803   -12.074 -0.110 -0.002 -0.002  0.000  0.000  0.000  0.000  0.000  0.000 -0.115
   2.784   -12.028 -0.108 -0.002 -0.002  0.000  0.000  0.000  0.000  0.000  0.000 -0.113
