#K-Path     Energy     s    py    pz    px    dxy    dyz    dz2    dxz    dx2-y2    tot
# Band-Index:    1
   0.000   -10.503 -0.048  0.000  0.000  0.000  0.000  0.000  0.000  0.000  0.000 -0.050
   0.019   -10.539  0.478  0.009  0.002  0.009  0.000  0.002  0.000  0.002  0.000  0.501
   0.039   -10.590  0.498  0.010  0.002  0.009  0.000  0.002  0.000  0.002  0.000  0.522
   0.058   -10.644  0.501  0.010  0.002  0.008  0.000  0.002  0.000  0.000  0.000  0.526
   0.078   -10.699  0.503  0.011  0.003  0.008  0.000  0.002  0.000  0.000  0.000  0.528
   0.097   -10.757  0.503  0.011  0.003  0.008  0.000  0.002  0.000  0.000  0.000  0.528
   0.117   -10.815  0.503  0.011  0.003  0.008  0.000  0.002  0.000  0.000  0.000  0.529
   0.136   -10.874  0.505  0.011  0.003  0.008  0.000  0.002  0.000  0.000  0.000  0.529
   0.156   -10.934  0.505  0.011  0.004  0.008  0.000  0.002  0.000  0.000  0.000  0.529
   0.175   -10.995  0.504  0.011  0.005  0.007  0.000  0.002  0.000  0.000  0.000  0.529
   0.195   -11.056  0.504  0.011  0.005  0.006  0.000  0.002  0.000  0.000  0.000  0.529
   0.214   -11.118  0.505  0.011  0.005  0.006  0.000  0.002  0.000  0.000  0.000  0.530
   0.234   -11.179  0.505  0.011  0.005  0.006  0.000  0.002  0.000  0.000  0.000  0.529
   0.253   -11.241  0.504  0.011  0.005  0.006  0.000  0.002  0.000  0.000  0.000  0.529
   0.273   -11.302  0.506  0.011  0.006  0.006  0.000  0.001  0.000  0.000  0.000  0.530
   0.292   -11.364  0.506  0.011  0.007  0.006  0.000  0.000  0.000  0.000  0.000  0.530
   0.312   -11.424  0.504  0.010  0.007  0.005  0.000  0.000  0.000  0.000  0.000  0.529
   0.331   -11.484  0.505  0.009  0.007  0.004  0.000  0.000  0.000  0.000  0.000  0.529
   0.351   -11.544  0.505  0.009  0.007  0.004  0.000  0.000  0.000  0.000  0.000  0.528
   0.370   -11.602  0.505  0.009  0.008  0.004  0.000  0.000  0.000  0.000  0.000  0.528
   0.390   -11.660  0.505  0.009  0.009  0.004  0.000  0.000  0.000  0.000  0.000  0.529
   0.409   -11.717  0.505  0.009  0.009  0.004  0.000  0.000  0.000  0.000  0.000  0.528
   0.429   -11.772  0.505  0.009  0.009  0.004  0.000  0.000  0.000  0.000  0.000  0.527
   0.448   -11.826  0.506  0.007  0.009  0.004  0.000  0.000  0.000  0.000  0.000  0.527
   0.467   -11.879  0.506  0.007  0.009  0.004  0.000  0.000  0.000  0.000  0.000  0.528
   0.487   -11.930  0.506  0.007  0.010  0.003  0.000  0.000  0.000  0.000  0.000  0.527
   0.506   -11.980  0.506  0.007  0.011  0.002  0.000  0.000  0.000  0.000  0.000  0.527
   0.526   -12.028  0.507  0.007  0.011  0.002  0.000  0.000  0.000  0.000  0.000  0.528
   0.545   -12.074  0.507  0.005  0.011  0.002  0.000  0.000  0.000  0.000  0.000  0.528
   0.565   -12.119  0.507  0.005  0.011  0.002  0.000  0.000  0.000  0.000  0.000  0.526
   0.584   -12.162  0.507  0.005  0.011  0.002  0.000  0.000  0.000  0.000  0.000  0.526
   0.604   -12.203  0.507  0.005  0.012  0.002  0.000  0.000  0.000  0.000  0.000  0.526
   0.623   -12.242  0.508  0.004  0.012  0.002  0.000  0.000  0.000  0.000  0.000  0.526
   0.643   -12.279  0.508  0.003  0.012  0.002  0.000  0.000  0.000  0.000  0.000  0.525
   0.662   -12.314  0.508  0.003  0.012  0.002  0.000  0.000  0.000  0.000  0.000  0.525
   0.682   -12.347  0.508  0.003  0.013  0.001  0.000  0.000  0.000  0.000  0.000  0.525
   0.701   -12.378  0.509  0.003  0.013  0.000  0.000  0.000  0.000  0.000  0.000  0.526
   0.721   -12.406  0.509  0.002  0.013  0.000  0.000  0.000  0.000  0.000  0.000  0.526
   0.740   -12.433  0.509  0.002  0.013  0.000  0.000  0.000  0.000  0.000  0.000  0.526
   0.760   -12.457  0.509  0.002  0.014  0.000  0.000  0.000  0.000  0.000  0.000  0.526
   0.779   -12.479  0.510  0.001  0.014  0.000  0.000  0.000  0.000  0.000  0.000  0.526
   0.799   -12.499  0.510  0.001  0.014  0.000  0.000  0.000  0.000  0.000  0.000  0.525
   0.818   -12.516  0.510  0.001  0.014  0.000  0.000  0.000  0.000  0.000  0.000  0.525
   0.838   -12.532  0.510  0.000  0.014  0.000  0.000  0.000  0.000  0.000  0.000  0.525
   0.857   -12.545  0.511  0.000  0.014  0.000  0.000  0.000  0.000  0.000  0.000  0.525
   0.876   -12.555  0.511  0.000  0.014  0.000  0.000  0.000  0.000  0.000  0.000  0.525
   0.896   -12.563  0.511  0.000  0.014  0.000  0.000  0.000  0.000  0.000  0.000  0.525
   0.915   -12.569  0.511  0.000  0.014  0.000  0.000  0.000  0.000  0.000  0.000  0.525
   0.935   -12.573  0.511  0.000  0.014  0.000  0.000  0.000  0.000  0.000  0.000  0.525
   0.954   -12.574  0.512  0.000  0.014  0.000  0.000  0.000  0.000  0.000  0.000  0.526
   0.954   -12.574  0.512  0.000  0.014  0.000  0.000  0.000  0.000  0.000  0.000  0.526
   0.971   -12.573  0.510  0.000  0.014  0.000  0.000  0.000  0.000  0.000  0.000  0.524
   0.988   -12.570  0.512  0.000  0.014  0.000  0.000  0.000  0.000  0.000  0.000  0.526
   1.005   -12.566  0.511  0.000  0.014  0.000  0.000  0.000  0.000  0.000  0.000  0.526
   1.022   -12.560  0.511  0.000  0.014  0.000  0.000  0.000  0.000  0.000  0.000  0.526
   1.039   -12.552  0.511  0.000  0.014  0.000  0.000  0.000  0.000  0.000  0.000  0.526
   1.056   -12.542  0.512  0.000  0.014  0.000  0.000  0.000  0.000  0.000  0.000  0.527
   1.072   -12.531  0.511  0.000  0.014  0.000  0.000  0.000  0.000  0.000  0.000  0.527
   1.089   -12.518  0.511  0.000  0.014  0.000  0.000  0.000  0.000  0.000  0.000  0.527
   1.106   -12.503  0.512  0.000  0.014  0.000  0.000  0.000  0.000  0.000  0.000  0.527
   1.123   -12.486  0.512  0.000  0.014  0.002  0.000  0.000  0.000  0.000  0.000  0.527
   1.140   -12.468  0.512  0.000  0.014  0.002  0.000  0.000  0.000  0.000  0.000  0.529
   1.157   -12.448  0.513  0.000  0.014  0.002  0.000  0.000  0.000  0.000  0.000  0.529
   1.174   -12.426  0.512  0.000  0.014  0.002  0.000  0.000  0.000  0.000  0.000  0.529
   1.190   -12.403  0.513  0.001  0.013  0.002  0.000  0.000  0.000  0.000  0.000  0.529
   1.207   -12.378  0.512  0.001  0.013  0.002  0.000  0.000  0.000  0.000  0.000  0.530
   1.224   -12.352  0.514  0.001  0.013  0.003  0.000  0.000  0.000  0.000  0.000  0.530
   1.241   -12.323  0.514  0.001  0.012  0.004  0.000  0.000  0.000  0.000  0.000  0.531
   1.258   -12.294  0.513  0.001  0.012  0.004  0.000  0.000  0.000  0.000  0.000  0.531
   1.275   -12.263  0.514  0.001  0.012  0.004  0.000  0.000  0.000  0.000  0.000  0.532
   1.292   -12.230  0.515  0.001  0.012  0.004  0.000  0.000  0.000  0.000  0.000  0.534
   1.309   -12.196  0.515  0.001  0.012  0.004  0.000  0.000  0.000  0.000  0.000  0.534
   1.325   -12.160  0.515  0.002  0.012  0.006  0.000  0.000  0.000  0.000  0.000  0.535
   1.342   -12.124  0.516  0.002  0.012  0.006  0.000  0.000  0.000  0.000  0.000  0.536
   1.359   -12.085  0.516  0.002  0.011  0.006  0.000  0.000  0.000  0.000  0.000  0.536
   1.376   -12.046  0.517  0.002  0.011  0.006  0.000  0.000  0.000  0.000  0.000  0.538
   1.393   -12.005  0.519  0.002  0.011  0.007  0.000  0.000  0.000  0.000  0.000  0.539
   1.410   -11.964  0.519  0.002  0.010  0.008  0.000  0.000  0.000  0.000  0.000  0.541
   1.427   -11.921  0.520  0.002  0.010  0.008  0.000  0.000  0.000  0.000  0.000  0.542
   1.443   -11.877  0.521  0.002  0.010  0.008  0.000  0.000  0.000  0.000  0.000  0.543
   1.460   -11.833  0.523  0.003  0.010  0.008  0.000  0.000  0.000  0.000  0.000  0.545
   1.477   -11.788  0.524  0.003  0.010  0.010  0.000  0.000  0.000  0.000  0.000  0.547
   1.494   -11.742  0.526  0.003  0.009  0.010  0.000  0.000  0.000  0.000  0.000  0.549
   1.511   -11.695  0.528  0.003  0.009  0.010  0.000  0.000  0.000  0.000  0.000  0.551
   1.528   -11.649  0.530  0.003  0.009  0.010  0.000  0.000  0.000  0.000  0.000  0.555
   1.545   -11.602  0.532  0.003  0.008  0.010  0.000  0.000  0.000  0.000  0.000  0.557
   1.561   -11.556  0.536  0.003  0.008  0.011  0.000  0.000  0.000  0.002  0.000  0.559
   1.578   -11.510  0.538  0.003  0.008  0.012  0.000  0.000  0.000  0.002  0.000  0.563
   1.595   -11.464  0.542  0.003  0.008  0.012  0.000  0.000  0.000  0.002  0.000  0.567
   1.612   -11.420  0.545  0.003  0.008  0.012  0.000  0.000  0.000  0.002  0.000  0.570
   1.629   -11.377  0.550  0.003  0.007  0.012  0.000  0.000  0.000  0.002  0.000  0.575
   1.646   -11.335  0.554  0.003  0.007  0.012  0.000  0.000  0.000  0.002  0.000  0.579
   1.663   -11.297  0.558  0.003  0.007  0.012  0.001  0.000  0.000  0.002  0.000  0.584
   1.680   -11.261  0.563  0.004  0.006  0.012  0.002  0.000  0.000  0.002  0.000  0.588
   1.696   -11.229  0.567  0.004  0.006  0.012  0.002  0.000  0.000  0.002  0.000  0.593
   1.713   -11.202  0.570  0.004  0.006  0.012  0.002  0.000  0.000  0.002  0.000  0.596
   1.730   -11.179  0.574  0.004  0.006  0.012  0.002  0.000  0.000  0.002  0.000  0.600
   1.747   -11.163  0.576  0.004  0.006  0.012  0.002  0.000  0.000  0.002  0.000  0.601
   1.764   -11.153  0.577  0.004  0.006  0.012  0.002  0.000  0.000  0.002  0.000  0.603
   1.781   -11.149  0.576  0.004  0.006  0.012  0.002  0.000  0.000  0.002  0.000  0.602
   1.781   -11.149  0.576  0.004  0.006  0.012  0.002  0.000  0.000  0.002  0.000  0.602
   1.790   -11.149  0.576  0.004  0.006  0.012  0.002  0.000  0.000  0.002  0.000  0.602
   1.800   -11.148  0.576  0.004  0.006  0.012  0.002  0.000  0.000  0.002  0.000  0.602
   1.810   -11.147  0.575  0.004  0.006  0.012  0.002  0.000  0.000  0.002  0.000  0.601
   1.820   -11.145  0.575  0.004  0.006  0.012  0.002  0.000  0.000  0.002  0.000  0.600
   1.829   -11.142  0.575  0.004  0.006  0.012  0.002  0.000  0.000  0.002  0.000  0.599
   1.839   -11.139  0.573  0.004  0.006  0.012  0.002  0.000  0.000  0.002  0.000  0.599
   1.849   -11.135  0.573  0.004  0.006  0.012  0.002  0.000  0.000  0.002  0.000  0.599
   1.859   -11.130  0.573  0.004  0.006  0.012  0.002  0.000  0.000  0.002  0.000  0.598
   1.868   -11.125  0.572  0.004  0.006  0.012  0.002  0.000  0.000  0.002  0.000  0.597
   1.878   -11.120  0.572  0.004  0.006  0.012  0.002  0.000  0.000  0.002  0.000  0.597
   1.888   -11.114  0.570  0.004  0.006  0.012  0.002  0.000  0.000  0.002  0.000  0.596
   1.898   -11.107  0.570  0.004  0.006  0.012  0.002  0.000  0.000  0.002  0.000  0.595
   1.907   -11.100  0.568  0.004  0.006  0.012  0.002  0.000  0.000  0.002  0.000  0.594
   1.917   -11.092  0.568  0.004  0.006  0.012  0.002  0.000  0.000  0.002  0.000  0.594
   1.927   -11.083  0.567  0.004  0.006  0.012  0.002  0.000  0.000  0.002  0.000  0.593
   1.937   -11.074  0.566  0.004  0.005  0.012  0.002  0.000  0.000  0.002  0.000  0.592
   1.946   -11.064  0.565  0.004  0.005  0.012  0.002  0.000  0.000  0.002  0.000  0.590
   1.956   -11.054  0.564  0.004  0.005  0.012  0.002  0.000  0.000  0.002  0.000  0.589
   1.966   -11.044  0.563  0.005  0.005  0.012  0.002  0.000  0.000  0.002  0.000  0.589
   1.975   -11.032  0.562  0.005  0.005  0.012  0.002  0.000  0.000  0.002  0.000  0.587
   1.985   -11.020  0.560  0.005  0.005  0.012  0.002  0.000  0.000  0.002  0.000  0.587
   1.995   -11.008  0.560  0.005  0.005  0.012  0.002  0.000  0.000  0.002  0.000  0.585
   2.005   -10.995  0.558  0.005  0.004  0.012  0.002  0.000  0.000  0.002  0.000  0.585
   2.014   -10.981  0.558  0.006  0.004  0.012  0.002  0.000  0.000  0.002  0.000  0.583
   2.024   -10.967  0.556  0.006  0.004  0.012  0.002  0.000  0.000  0.002  0.000  0.582
   2.034   -10.953  0.555  0.006  0.004  0.012  0.002  0.000  0.000  0.002  0.000  0.580
   2.044   -10.938  0.554  0.006  0.004  0.012  0.002  0.000  0.000  0.002  0.000  0.580
   2.053   -10.922  0.553  0.006  0.004  0.012  0.002  0.000  0.000  0.002  0.000  0.579
   2.063   -10.906  0.551  0.006  0.004  0.012  0.001  0.000  0.000  0.002  0.000  0.578
   2.073   -10.889  0.551  0.007  0.004  0.012  0.000  0.000  0.000  0.002  0.000  0.577
   2.083   -10.872  0.549  0.007  0.004  0.012  0.000  0.000  0.000  0.002  0.000  0.575
   2.092   -10.854  0.548  0.007  0.004  0.012  0.000  0.000  0.000  0.002  0.000  0.575
   2.102   -10.836  0.547  0.007  0.004  0.012  0.000  0.000  0.000  0.002  0.000  0.573
   2.112   -10.817  0.546  0.007  0.003  0.012  0.000  0.000  0.000  0.002  0.000  0.571
   2.122   -10.798  0.544  0.008  0.003  0.012  0.000  0.000  0.000  0.002  0.000  0.571
   2.131   -10.778  0.543  0.008  0.003  0.012  0.000  0.000  0.000  0.002  0.000  0.569
   2.141   -10.758  0.542  0.008  0.003  0.012  0.000  0.000  0.000  0.002  0.000  0.568
   2.151   -10.738  0.541  0.008  0.003  0.012  0.000  0.000  0.000  0.002  0.000  0.567
   2.161   -10.717  0.539  0.008  0.003  0.012  0.000  0.000  0.000  0.002  0.000  0.566
   2.170   -10.695  0.539  0.009  0.003  0.012  0.000  0.000  0.000  0.002  0.000  0.564
   2.180   -10.673  0.537  0.009  0.003  0.012  0.000  0.000  0.000  0.002  0.000  0.563
   2.190   -10.651  0.535  0.009  0.002  0.011  0.000  0.001  0.000  0.002  0.000  0.561
   2.199   -10.629  0.534  0.009  0.002  0.011  0.000  0.002  0.000  0.002  0.000  0.560
   2.209   -10.606  0.532  0.009  0.002  0.010  0.000  0.002  0.000  0.002  0.000  0.558
   2.219   -10.582  0.530  0.010  0.002  0.010  0.000  0.002  0.000  0.002  0.000  0.555
   2.229   -10.559  0.524  0.010  0.002  0.010  0.000  0.002  0.000  0.002  0.000  0.551
   2.238   -10.536  0.512  0.010  0.002  0.010  0.000  0.002  0.000  0.002  0.000  0.537
   2.248   -10.515  0.454  0.009  0.002  0.009  0.000  0.000  0.000  0.002  0.000  0.476
   2.258   -10.503 -0.048  0.000  0.000  0.000  0.000  0.000  0.000  0.000  0.000 -0.050
   2.258   -10.503 -0.048  0.000  0.000  0.000  0.000  0.000  0.000  0.000  0.000 -0.050
   2.277   -10.539  0.478  0.009  0.002  0.009  0.000  0.002  0.000  0.002  0.000  0.501
   2.297   -10.590  0.498  0.010  0.002  0.009  0.000  0.002  0.000  0.002  0.000  0.523
   2.316   -10.644  0.501  0.010  0.002  0.008  0.000  0.002  0.000  0.000  0.000  0.526
   2.336   -10.699  0.503  0.011  0.003  0.008  0.000  0.002  0.000  0.000  0.000  0.528
   2.355   -10.757  0.503  0.011  0.003  0.008  0.000  0.002  0.000  0.000  0.000  0.528
   2.375   -10.815  0.503  0.011  0.003  0.008  0.000  0.002  0.000  0.000  0.000  0.529
   2.394   -10.874  0.504  0.011  0.003  0.008  0.000  0.002  0.000  0.000  0.000  0.529
   2.414   -10.934  0.503  0.011  0.004  0.008  0.000  0.002  0.000  0.000  0.000  0.529
   2.433   -10.995  0.505  0.011  0.005  0.007  0.000  0.002  0.000  0.000  0.000  0.529
   2.453   -11.056  0.505  0.011  0.005  0.006  0.000  0.002  0.000  0.000  0.000  0.529
   2.472   -11.118  0.505  0.011  0.005  0.006  0.000  0.002  0.000  0.000  0.000  0.529
   2.492   -11.179  0.504  0.011  0.005  0.006  0.000  0.002  0.000  0.000  0.000  0.529
   2.511   -11.241  0.505  0.011  0.005  0.006  0.000  0.002  0.000  0.000  0.000  0.529
   2.531   -11.302  0.506  0.011  0.006  0.006  0.000  0.001  0.000  0.000  0.000  0.530
   2.550   -11.364  0.504  0.011  0.007  0.006  0.000  0.000  0.000  0.000  0.000  0.529
   2.570   -11.424  0.504  0.010  0.007  0.005  0.000  0.000  0.000  0.000  0.000  0.529
   2.589   -11.484  0.504  0.009  0.007  0.004  0.000  0.000  0.000  0.000  0.000  0.528
   2.609   -11.544  0.504  0.009  0.007  0.004  0.000  0.000  0.000  0.000  0.000  0.528
   2.628   -11.602  0.505  0.009  0.008  0.004  0.000  0.000  0.000  0.000  0.000  0.528
   2.647   -11.660  0.505  0.009  0.009  0.004  0.000  0.000  0.000  0.000  0.000  0.528
   2.667   -11.717  0.505  0.009  0.009  0.004  0.000  0.000  0.000  0.000  0.000  0.528
   2.686   -11.772  0.505  0.009  0.009  0.004  0.000  0.000  0.000  0.000  0.000  0.529
   2.706   -11.826  0.505  0.007  0.009  0.004  0.000  0.000  0.000  0.000  0.000  0.527
   2.725   -11.879  0.506  0.007  0.009  0.004  0.000  0.000  0.000  0.000  0.000  0.528
   2.745   -11.930  0.506  0.007  0.010  0.003  0.000  0.000  0.000  0.000  0.000  0.527
   2.764   -11.980  0.506  0.007  0.011  0.002  0.000  0.000  0.000  0.000  0.000  0.527
   2.784   -12.028  0.506  0.007  0.011  0.002  0.000  0.000  0.000  0.000  0.000  0.527
   2.803   -12.074  0.507  0.005  0.011  0.002  0.000  0.000  0.000  0.000  0.000  0.526
   2.823   -12.119  0.507  0.005  0.011  0.002  0.000  0.000  0.000  0.000  0.000  0.526
   2.842   -12.162  0.507  0.005  0.011  0.002  0.000  0.000  0.000  0.000  0.000  0.527
   2.862   -12.203  0.507  0.005  0.012  0.002  0.000  0.000  0.000  0.000  0.000  0.526
   2.881   -12.242  0.508  0.004  0.012  0.002  0.000  0.000  0.000  0.000  0.000  0.526
   2.901   -12.279  0.508  0.003  0.012  0.002  0.000  0.000  0.000  0.000  0.000  0.525
   2.920   -12.314  0.508  0.003  0.012  0.002  0.000  0.000  0.000  0.000  0.000  0.525
   2.940   -12.347  0.508  0.003  0.013  0.001  0.000  0.000  0.000  0.000  0.000  0.526
   2.959   -12.378  0.509  0.003  0.013  0.000  0.000  0.000  0.000  0.000  0.000  0.526
   2.979   -12.406  0.509  0.002  0.013  0.000  0.000  0.000  0.000  0.000  0.000  0.526
   2.998   -12.433  0.509  0.002  0.013  0.000  0.000  0.000  0.000  0.000  0.000  0.526
   3.018   -12.457  0.509  0.002  0.014  0.000  0.000  0.000  0.000  0.000  0.000  0.526
   3.037   -12.479  0.510  0.001  0.014  0.000  0.000  0.000  0.000  0.000  0.000  0.526
   3.057   -12.499  0.510  0.001  0.014  0.000  0.000  0.000  0.000  0.000  0.000  0.525
   3.076   -12.516  0.510  0.001  0.014  0.000  0.000  0.000  0.000  0.000  0.000  0.525
   3.095   -12.532  0.510  0.000  0.014  0.000  0.000  0.000  0.000  0.000  0.000  0.525
   3.115   -12.545  0.511  0.000  0.014  0.000  0.000  0.000  0.000  0.000  0.000  0.525
   3.134   -12.555  0.511  0.000  0.014  0.000  0.000  0.000  0.000  0.000  0.000  0.525
   3.154   -12.563  0.511  0.000  0.014  0.000  0.000  0.000  0.000  0.000  0.000  0.525
   3.173   -12.569  0.511  0.000  0.014  0.000  0.000  0.000  0.000  0.000  0.000  0.525
   3.193   -12.573  0.511  0.000  0.014  0.000  0.000  0.000  0.000  0.000  0.000  0.526
   3.212   -12.574  0.510  0.000  0.014  0.000  0.000  0.000  0.000  0.000  0.000  0.526
# Band-Index:    2
   3.212   -12.574 -0.510  0.000 -0.014  0.000  0.000  0.000  0.000  0.000  0.000 -0.526
   3.193   -12.573 -0.511  0.000 -0.014  0.000  0.000  0.000  0.000  0.000  0.000 -0.526
   3.173   -12.569 -0.511  0.000 -0.014  0.000  0.000  0.000  0.000  0.000  0.000 -0.525
   3.154   -12.563 -0.511  0.000 -0.014  0.000  0.000  0.000  0.000  0.000  0.000 -0.525
   3.134   -12.555 -0.511  0.000 -0.014  0.000  0.000  0.000  0.000  0.000  0.000 -0.525
   3.115   -12.545 -0.511  0.000 -0.014  0.000  0.000  0.000  0.000  0.000  0.000 -0.525
   3.095   -12.532 -0.510  0.000 -0.014  0.000  0.000  0.000  0.000  0.000  0.000 -0.525
   3.076   -12.516 -0.510 -0.001 -0.014  0.000  0.000  0.000  0.000  0.000  0.000 -0.525
   3.057   -12.499 -0.510 -0.001 -0.014  0.000  0.000  0.000  0.000  0.000  0.000 -0.525
   3.037   -12.479 -0.510 -0.001 -0.014  0.000  0.000  0.000  0.000  0.000  0.000 -0.526
   3.018   -12.457 -0.509 -0.002 -0.014  0.000  0.000  0.000  0.000  0.000  0.000 -0.526
   2.998   -12.433 -0.509 -0.002 -0.013  0.000  0.000  0.000  0.000  0.000  0.000 -0.526
   2.979   -12.406 -0.509 -0.002 -0.013  0.000  0.000  0.000  0.000  0.000  0.000 -0.526
   2.959   -12.378 -0.509 -0.003 -0.013  0.000  0.000  0.000  0.000  0.000  0.000 -0.526
   2.940   -12.347 -0.508 -0.003 -0.013 -0.001  0.000  0.000  0.000  0.000  0.000 -0.526
   2.920   -12.314 -0.508 -0.003 -0.012 -0.002  0.000  0.000  0.000  0.000  0.000 -0.525
   2.901   -12.279 -0.508 -0.003 -0.012 -0.002  0.000  0.000  0.000  0.000  0.000 -0.525
   2.881   -12.242 -0.508 -0.004 -0.012 -0.002  0.000  0.000  0.000  0.000  0.000 -0.526
   2.862   -12.203 -0.507 -0.005 -0.012 -0.002  0.000  0.000  0.000  0.000  0.000 -0.526
   2.842   -12.162 -0.507 -0.005 -0.011 -0.002  0.000  0.000  0.000  0.000  0.000 -0.527
   2.823   -12.119 -0.507 -0.005 -0.011 -0.002  0.000  0.000  0.000  0.000  0.000 -0.526
   2.803   -12.074 -0.507 -0.005 -0.011 -0.002  0.000  0.000  0.000  0.000  0.000 -0.526
   2.784   -12.028 -0.506 -0.007 -0.011 -0.002  0.000  0.000  0.000  0.000  0.000 -0.527
