#K-Path     Energy     s    py    pz    px    dxy    dyz    dz2    dxz    dx2-y2    tot
# Band-Index:    1
   0.000   -10.503 -0.003  0.000  0.000  0.000  0.000  0.000  0.000  0.000  0.000 -0.003
   0.019   -10.539  0.619  0.012  0.002  0.012  0.000  0.002  0.000  0.002  0.000  0.650
   0.039   -10.590  0.657  0.014  0.003  0.012  0.000  0.002  0.000  0.002  0.000  0.689
   0.058   -10.644  0.663  0.014  0.003  0.011  0.000  0.002  0.000  0.002  0.000  0.696
   0.078   -10.699  0.665  0.014  0.004  0.011  0.000  0.002  0.000  0.002  0.000  0.697
   0.097   -10.757  0.663  0.014  0.004  0.010  0.000  0.002  0.000  0.002  0.000  0.696
   0.117   -10.815  0.662  0.014  0.004  0.010  0.000  0.002  0.000  0.002  0.000  0.695
   0.136   -10.874  0.660  0.014  0.005  0.009  0.000  0.002  0.000  0.002  0.000  0.693
   0.156   -10.934  0.659  0.014  0.005  0.009  0.000  0.002  0.000  0.000  0.000  0.691
   0.175   -10.995  0.657  0.014  0.006  0.008  0.000  0.002  0.000  0.000  0.000  0.689
   0.195   -11.056  0.655  0.014  0.006  0.008  0.000  0.002  0.000  0.000  0.000  0.686
   0.214   -11.118  0.651  0.014  0.006  0.007  0.000  0.002  0.000  0.000  0.000  0.684
   0.234   -11.179  0.649  0.014  0.007  0.007  0.000  0.002  0.000  0.000  0.000  0.682
   0.253   -11.241  0.647  0.014  0.007  0.007  0.000  0.002  0.000  0.000  0.000  0.680
   0.273   -11.302  0.645  0.014  0.008  0.007  0.000  0.002  0.000  0.000  0.000  0.676
   0.292   -11.364  0.643  0.014  0.008  0.006  0.000  0.002  0.000  0.000  0.000  0.674
   0.312   -11.424  0.641  0.014  0.009  0.006  0.000  0.002  0.000  0.000  0.000  0.672
   0.331   -11.484  0.639  0.013  0.009  0.005  0.000  0.002  0.000  0.000  0.000  0.670
   0.351   -11.544  0.637  0.012  0.010  0.005  0.000  0.002  0.000  0.000  0.000  0.667
   0.370   -11.602  0.636  0.012  0.010  0.005  0.000  0.002  0.000  0.000  0.000  0.665
   0.390   -11.660  0.634  0.012  0.010  0.005  0.000  0.002  0.000  0.000  0.000  0.663
   0.409   -11.717  0.632  0.012  0.011  0.004  0.000  0.000  0.000  0.000  0.000  0.661
   0.429   -11.772  0.630  0.010  0.011  0.004  0.000  0.000  0.000  0.000  0.000  0.659
   0.448   -11.826  0.629  0.010  0.012  0.004  0.000  0.000  0.000  0.000  0.000  0.657
   0.467   -11.879  0.627  0.010  0.012  0.003  0.000  0.000  0.000  0.000  0.000  0.654
   0.487   -11.930  0.626  0.009  0.012  0.003  0.000  0.000  0.000  0.000  0.000  0.653
   0.506   -11.980  0.625  0.008  0.013  0.003  0.000  0.000  0.000  0.000  0.000  0.651
   0.526   -12.028  0.623  0.008  0.013  0.003  0.000  0.000  0.000  0.000  0.000  0.649
   0.545   -12.074  0.623  0.008  0.014  0.003  0.000  0.000  0.000  0.000  0.000  0.647
   0.565   -12.119  0.621  0.006  0.014  0.002  0.000  0.000  0.000  0.000  0.000  0.646
   0.584   -12.162  0.621  0.006  0.014  0.002  0.000  0.000  0.000  0.000  0.000  0.644
   0.604   -12.203  0.619  0.006  0.014  0.002  0.000  0.000  0.000  0.000  0.000  0.642
   0.623   -12.242  0.619  0.006  0.014  0.002  0.000  0.000  0.000  0.000  0.000  0.641
   0.643   -12.279  0.618  0.004  0.015  0.002  0.000  0.000  0.000  0.000  0.000  0.640
   0.662   -12.314  0.617  0.004  0.015  0.001  0.000  0.000  0.000  0.000  0.000  0.638
   0.682   -12.347  0.616  0.004  0.016  0.001  0.000  0.000  0.000  0.000  0.000  0.637
   0.701   -12.378  0.616  0.004  0.016  0.001  0.000  0.000  0.000  0.000  0.000  0.636
   0.721   -12.406  0.616  0.002  0.016  0.001  0.000  0.000  0.000  0.000  0.000  0.635
   0.740   -12.433  0.615  0.002  0.016  0.001  0.000  0.000  0.000  0.000  0.000  0.635
   0.760   -12.457  0.614  0.002  0.016  0.000  0.000  0.000  0.000  0.000  0.000  0.633
   0.779   -12.479  0.614  0.002  0.016  0.000  0.000  0.000  0.000  0.000  0.000  0.633
   0.799   -12.499  0.613  0.002  0.016  0.000  0.000  0.000  0.000  0.000  0.000  0.632
   0.818   -12.516  0.613  0.000  0.016  0.000  0.000  0.000  0.000  0.000  0.000  0.631
   0.838   -12.532  0.613  0.000  0.016  0.000  0.000  0.000  0.000  0.000  0.000  0.631
   0.857   -12.545  0.613  0.000  0.016  0.000  0.000  0.000  0.000  0.000  0.000  0.630
   0.876   -12.555  0.612  0.000  0.016  0.000  0.000  0.000  0.000  0.000  0.000  0.629
   0.896   -12.563  0.612  0.000  0.016  0.000  0.000  0.000  0.000  0.000  0.000  0.629
   0.915   -12.569  0.612  0.000  0.017  0.000  0.000  0.000  0.000  0.000  0.000  0.629
   0.935   -12.573  0.612  0.000  0.017  0.000  0.000  0.000  0.000  0.000  0.000  0.629
   0.954   -12.574  0.612  0.000  0.016  0.000  0.000  0.000  0.000  0.000  0.000  0.628
   0.954   -12.574  0.612  0.000  0.016  0.000  0.000  0.000  0.000  0.000  0.000  0.628
   0.971   -12.573  0.613  0.000  0.018  0.000  0.000  0.000  0.000  0.000  0.000  0.630
   0.988   -12.570  0.613  0.000  0.017  0.000  0.000  0.000  0.000  0.000  0.000  0.630
   1.005   -12.566  0.614  0.000  0.017  0.000  0.000  0.000  0.000  0.000  0.000  0.631
   1.022   -12.560  0.615  0.000  0.017  0.000  0.000  0.000  0.000  0.000  0.000  0.631
   1.039   -12.552  0.615  0.000  0.017  0.000  0.000  0.000  0.000  0.000  0.000  0.633
   1.056   -12.542  0.615  0.000  0.017  0.000  0.000  0.000  0.000  0.000  0.000  0.633
   1.072   -12.531  0.616  0.000  0.017  0.001  0.000  0.000  0.000  0.000  0.000  0.635
   1.089   -12.518  0.618  0.000  0.016  0.001  0.000  0.000  0.000  0.000  0.000  0.635
   1.106   -12.503  0.618  0.000  0.016  0.001  0.000  0.000  0.000  0.000  0.000  0.636
   1.123   -12.486  0.618  0.000  0.016  0.002  0.000  0.000  0.000  0.000  0.000  0.637
   1.140   -12.468  0.618  0.000  0.016  0.002  0.000  0.000  0.000  0.000  0.000  0.638
   1.157   -12.448  0.619  0.000  0.016  0.002  0.000  0.000  0.000  0.000  0.000  0.638
   1.174   -12.426  0.619  0.000  0.016  0.002  0.000  0.000  0.000  0.000  0.000  0.640
   1.190   -12.403  0.620  0.000  0.016  0.003  0.000  0.000  0.000  0.000  0.000  0.640
   1.207   -12.378  0.621  0.001  0.016  0.003  0.000  0.000  0.000  0.000  0.000  0.641
   1.224   -12.352  0.621  0.002  0.016  0.003  0.000  0.000  0.000  0.000  0.000  0.642
   1.241   -12.323  0.622  0.002  0.015  0.004  0.000  0.000  0.000  0.000  0.000  0.643
   1.258   -12.294  0.622  0.002  0.015  0.005  0.000  0.000  0.000  0.000  0.000  0.643
   1.275   -12.263  0.622  0.002  0.015  0.005  0.000  0.000  0.000  0.000  0.000  0.645
   1.292   -12.230  0.622  0.002  0.015  0.005  0.000  0.000  0.000  0.000  0.000  0.645
   1.309   -12.196  0.623  0.002  0.014  0.005  0.000  0.000  0.000  0.000  0.000  0.646
   1.325   -12.160  0.623  0.002  0.014  0.006  0.000  0.000  0.000  0.000  0.000  0.646
   1.342   -12.124  0.623  0.002  0.014  0.007  0.000  0.000  0.000  0.000  0.000  0.648
   1.359   -12.085  0.624  0.002  0.013  0.007  0.000  0.000  0.000  0.000  0.000  0.648
   1.376   -12.046  0.624  0.002  0.013  0.007  0.000  0.000  0.000  0.000  0.000  0.648
   1.393   -12.005  0.624  0.002  0.013  0.008  0.000  0.000  0.000  0.000  0.000  0.649
   1.410   -11.964  0.624  0.003  0.013  0.009  0.000  0.000  0.000  0.000  0.000  0.649
   1.427   -11.921  0.624  0.004  0.013  0.009  0.000  0.000  0.000  0.000  0.000  0.650
   1.443   -11.877  0.624  0.004  0.012  0.009  0.000  0.000  0.000  0.000  0.000  0.650
   1.460   -11.833  0.623  0.004  0.011  0.009  0.000  0.000  0.000  0.000  0.000  0.650
   1.477   -11.788  0.623  0.004  0.011  0.011  0.000  0.000  0.000  0.000  0.000  0.651
   1.494   -11.742  0.623  0.004  0.011  0.011  0.000  0.000  0.000  0.000  0.000  0.651
   1.511   -11.695  0.622  0.004  0.011  0.011  0.000  0.000  0.000  0.001  0.000  0.650
   1.528   -11.649  0.621  0.004  0.010  0.011  0.000  0.000  0.000  0.002  0.000  0.649
   1.545   -11.602  0.621  0.004  0.010  0.011  0.000  0.000  0.000  0.002  0.000  0.649
   1.561   -11.556  0.620  0.004  0.009  0.011  0.000  0.000  0.000  0.002  0.000  0.648
   1.578   -11.510  0.619  0.004  0.009  0.012  0.000  0.000  0.000  0.002  0.000  0.647
   1.595   -11.464  0.618  0.004  0.009  0.013  0.000  0.000  0.000  0.002  0.000  0.646
   1.612   -11.420  0.617  0.004  0.009  0.013  0.002  0.000  0.000  0.002  0.000  0.645
   1.629   -11.377  0.614  0.004  0.008  0.013  0.002  0.000  0.000  0.002  0.000  0.643
   1.646   -11.335  0.612  0.004  0.008  0.013  0.002  0.000  0.000  0.002  0.000  0.641
   1.663   -11.297  0.610  0.004  0.007  0.013  0.002  0.000  0.000  0.002  0.000  0.638
   1.680   -11.261  0.607  0.004  0.007  0.012  0.002  0.000  0.000  0.002  0.000  0.636
   1.696   -11.229  0.605  0.004  0.007  0.012  0.002  0.000  0.000  0.002  0.000  0.632
   1.713   -11.202  0.602  0.004  0.007  0.012  0.002  0.000  0.000  0.002  0.000  0.629
   1.730   -11.179  0.599  0.004  0.006  0.012  0.002  0.000  0.000  0.002  0.000  0.626
   1.747   -11.163  0.596  0.004  0.006  0.012  0.002  0.000  0.000  0.002  0.000  0.623
   1.764   -11.153  0.593  0.004  0.006  0.012  0.002  0.000  0.000  0.002  0.000  0.621
   1.781   -11.149  0.592  0.004  0.006  0.012  0.002  0.000  0.000  0.002  0.000  0.618
   1.781   -11.149  0.592  0.004  0.006  0.012  0.002  0.000  0.000  0.002  0.000  0.618
   1.790   -11.149  0.590  0.004  0.006  0.012  0.002  0.000  0.000  0.002  0.000  0.617
   1.800   -11.148  0.590  0.004  0.006  0.012  0.002  0.000  0.000  0.002  0.000  0.616
   1.810   -11.147  0.590  0.004  0.006  0.012  0.002  0.000  0.000  0.002  0.000  0.616
   1.820   -11.145  0.589  0.004  0.006  0.012  0.002  0.000  0.000  0.002  0.000  0.616
   1.829   -11.142  0.589  0.004  0.006  0.012  0.002  0.000  0.000  0.002  0.000  0.615
   1.839   -11.139  0.588  0.004  0.006  0.012  0.002  0.000  0.000  0.002  0.000  0.614
   1.849   -11.135  0.587  0.004  0.006  0.012  0.002  0.000  0.000  0.002  0.000  0.614
   1.859   -11.130  0.587  0.004  0.006  0.012  0.002  0.000  0.000  0.002  0.000  0.614
   1.868   -11.125  0.587  0.006  0.006  0.012  0.002  0.000  0.000  0.002  0.000  0.613
   1.878   -11.120  0.587  0.006  0.006  0.012  0.002  0.000  0.000  0.002  0.000  0.613
   1.888   -11.114  0.587  0.006  0.006  0.012  0.002  0.000  0.000  0.002  0.000  0.613
   1.898   -11.107  0.586  0.006  0.006  0.012  0.002  0.000  0.000  0.002  0.000  0.613
   1.907   -11.100  0.585  0.006  0.006  0.012  0.002  0.000  0.000  0.002  0.000  0.612
   1.917   -11.092  0.585  0.006  0.006  0.012  0.002  0.000  0.000  0.002  0.000  0.612
   1.927   -11.083  0.585  0.006  0.006  0.012  0.002  0.000  0.000  0.002  0.000  0.611
   1.937   -11.074  0.585  0.006  0.006  0.012  0.002  0.000  0.000  0.002  0.000  0.611
   1.946   -11.064  0.585  0.006  0.006  0.012  0.002  0.000  0.000  0.002  0.000  0.611
   1.956   -11.054  0.584  0.006  0.006  0.012  0.002  0.000  0.000  0.002  0.000  0.611
   1.966   -11.044  0.584  0.006  0.006  0.012  0.002  0.000  0.000  0.002  0.000  0.611
   1.975   -11.032  0.584  0.006  0.006  0.012  0.002  0.000  0.000  0.002  0.000  0.611
   1.985   -11.020  0.584  0.006  0.005  0.012  0.002  0.000  0.000  0.002  0.000  0.612
   1.995   -11.008  0.584  0.006  0.005  0.012  0.002  0.000  0.000  0.002  0.000  0.612
   2.005   -10.995  0.584  0.006  0.005  0.012  0.002  0.000  0.000  0.002  0.000  0.612
   2.014   -10.981  0.584  0.006  0.005  0.012  0.002  0.000  0.000  0.002  0.000  0.612
   2.024   -10.967  0.585  0.007  0.004  0.012  0.002  0.000  0.000  0.002  0.000  0.612
   2.034   -10.953  0.585  0.008  0.004  0.012  0.002  0.000  0.000  0.002  0.000  0.612
   2.044   -10.938  0.585  0.008  0.004  0.012  0.002  0.000  0.000  0.002  0.000  0.612
   2.053   -10.922  0.585  0.008  0.004  0.012  0.002  0.000  0.000  0.002  0.000  0.612
   2.063   -10.906  0.585  0.008  0.004  0.012  0.002  0.000  0.000  0.002  0.000  0.613
   2.073   -10.889  0.585  0.008  0.004  0.012  0.002  0.000  0.000  0.002  0.000  0.613
   2.083   -10.872  0.585  0.008  0.004  0.012  0.002  0.000  0.000  0.002  0.000  0.613
   2.092   -10.854  0.585  0.008  0.004  0.012  0.001  0.000  0.000  0.002  0.000  0.613
   2.102   -10.836  0.586  0.008  0.004  0.012  0.001  0.000  0.000  0.002  0.000  0.613
   2.112   -10.817  0.586  0.008  0.004  0.012  0.001  0.000  0.000  0.002  0.000  0.615
   2.122   -10.798  0.586  0.008  0.004  0.012  0.001  0.000  0.000  0.002  0.000  0.615
   2.131   -10.778  0.586  0.010  0.004  0.012  0.001  0.001  0.000  0.002  0.000  0.615
   2.141   -10.758  0.587  0.010  0.004  0.012  0.001  0.001  0.000  0.002  0.000  0.615
   2.151   -10.738  0.587  0.010  0.004  0.012  0.001  0.001  0.000  0.002  0.000  0.615
   2.161   -10.717  0.587  0.010  0.003  0.012  0.000  0.002  0.000  0.002  0.000  0.616
   2.170   -10.695  0.586  0.010  0.003  0.012  0.000  0.002  0.000  0.002  0.000  0.616
   2.180   -10.673  0.586  0.010  0.003  0.012  0.000  0.002  0.000  0.002  0.000  0.615
   2.190   -10.651  0.586  0.010  0.003  0.012  0.000  0.002  0.000  0.002  0.000  0.615
   2.199   -10.629  0.584  0.010  0.002  0.012  0.000  0.002  0.000  0.002  0.000  0.613
   2.209   -10.606  0.582  0.010  0.002  0.012  0.000  0.002  0.000  0.002  0.000  0.610
   2.219   -10.582  0.575  0.010  0.002  0.012  0.000  0.002  0.000  0.002  0.000  0.604
   2.229   -10.559  0.564  0.010  0.002  0.011  0.000  0.002  0.000  0.002  0.000  0.592
   2.238   -10.536  0.532  0.010  0.002  0.010  0.000  0.002  0.000  0.002  0.000  0.558
   2.248   -10.515  0.415  0.008  0.002  0.008  0.000  0.000  0.000  0.000  0.000  0.435
   2.258   -10.503 -0.003  0.000  0.000  0.000  0.000  0.000  0.000  0.000  0.000 -0.003
   2.258   -10.503 -0.003  0.000  0.000  0.000  0.000  0.000  0.000  0.000  0.000 -0.003
   2.277   -10.539  0.619  0.012  0.002  0.012  0.000  0.002  0.000  0.002  0.000  0.650
   2.297   -10.590  0.657  0.014  0.003  0.012  0.000  0.002  0.000  0.002  0.000  0.689
   2.316   -10.644  0.663  0.014  0.003  0.011  0.000  0.002  0.000  0.002  0.000  0.696
   2.336   -10.699  0.664  0.014  0.004  0.011  0.000  0.002  0.000  0.002  0.000  0.697
   2.355   -10.757  0.663  0.014  0.004  0.010  0.000  0.002  0.000  0.002  0.000  0.696
   2.375   -10.815  0.662  0.014  0.004  0.010  0.000  0.002  0.000  0.002  0.000  0.695
   2.394   -10.874  0.661  0.014  0.005  0.009  0.000  0.002  0.000  0.002  0.000  0.693
   2.414   -10.934  0.659  0.014  0.005  0.009  0.000  0.002  0.000  0.000  0.000  0.692
   2.433   -10.995  0.656  0.014  0.006  0.008  0.000  0.002  0.000  0.000  0.000  0.688
   2.453   -11.056  0.655  0.014  0.006  0.008  0.000  0.002  0.000  0.000  0.000  0.686
   2.472   -11.118  0.651  0.014  0.006  0.007  0.000  0.002  0.000  0.000  0.000  0.684
   2.492   -11.179  0.649  0.014  0.007  0.007  0.000  0.002  0.000  0.000  0.000  0.682
   2.511   -11.241  0.647  0.014  0.007  0.007  0.000  0.002  0.000  0.000  0.000  0.680
   2.531   -11.302  0.645  0.014  0.008  0.007  0.000  0.002  0.000  0.000  0.000  0.676
   2.550   -11.364  0.643  0.014  0.008  0.006  0.000  0.002  0.000  0.000  0.000  0.674
   2.570   -11.424  0.641  0.014  0.009  0.006  0.000  0.002  0.000  0.000  0.000  0.672
   2.589   -11.484  0.639  0.013  0.009  0.005  0.000  0.002  0.000  0.000  0.000  0.670
   2.609   -11.544  0.638  0.012  0.010  0.005  0.000  0.002  0.000  0.000  0.000  0.668
   2.628   -11.602  0.636  0.012  0.010  0.005  0.000  0.002  0.000  0.000  0.000  0.665
   2.647   -11.660  0.634  0.012  0.010  0.005  0.000  0.002  0.000  0.000  0.000  0.663
   2.667   -11.717  0.632  0.012  0.011  0.004  0.000  0.000  0.000  0.000  0.000  0.661
   2.686   -11.772  0.630  0.010  0.011  0.004  0.000  0.000  0.000  0.000  0.000  0.659
   2.706   -11.826  0.629  0.010  0.012  0.004  0.000  0.000  0.000  0.000  0.000  0.657
   2.725   -11.879  0.627  0.010  0.012  0.003  0.000  0.000  0.000  0.000  0.000  0.654
   2.745   -11.930  0.626  0.009  0.012  0.003  0.000  0.000  0.000  0.000  0.000  0.653
   2.764   -11.980  0.625  0.008  0.013  0.003  0.000  0.000  0.000  0.000  0.000  0.651
   2.784   -12.028  0.623  0.008  0.013  0.003  0.000  0.000  0.000  0.000  0.000  0.649
   2.803   -12.074  0.623  0.008  0.014  0.003  0.000  0.000  0.000  0.000  0.000  0.647
   2.823   -12.119  0.621  0.006  0.014  0.002  0.000  0.000  0.000  0.000  0.000  0.646
   2.842   -12.162  0.619  0.006  0.014  0.002  0.000  0.000  0.000  0.000  0.000  0.644
   2.862   -12.203  0.619  0.006  0.014  0.002  0.000  0.000  0.000  0.000  0.000  0.642
   2.881   -12.242  0.619  0.006  0.014  0.002  0.000  0.000  0.000  0.000  0.000  0.642
   2.901   -12.279  0.618  0.004  0.015  0.002  0.000  0.000  0.000  0.000  0.000  0.640
   2.920   -12.314  0.618  0.004  0.015  0.001  0.000  0.000  0.000  0.000  0.000  0.639
   2.940   -12.347  0.616  0.004  0.016  0.001  0.000  0.000  0.000  0.000  0.000  0.637
   2.959   -12.378  0.616  0.004  0.016  0.001  0.000  0.000  0.000  0.000  0.000  0.636
   2.979   -12.406  0.616  0.002  0.016  0.001  0.000  0.000  0.000  0.000  0.000  0.635
   2.998   -12.433  0.614  0.002  0.016  0.001  0.000  0.000  0.000  0.000  0.000  0.633
   3.018   -12.457  0.614  0.002  0.016  0.000  0.000  0.000  0.000  0.000  0.000  0.633
   3.037   -12.479  0.614  0.002  0.016  0.000  0.000  0.000  0.000  0.000  0.000  0.633
   3.057   -12.499  0.613  0.002  0.016  0.000  0.000  0.000  0.000  0.000  0.000  0.631
   3.076   -12.516  0.613  0.000  0.016  0.000  0.000  0.000  0.000  0.000  0.000  0.631
   3.095   -12.532  0.613  0.000  0.016  0.000  0.000  0.000  0.000  0.000  0.000  0.631
   3.115   -12.545  0.613  0.000  0.016  0.000  0.000  0.000  0.000  0.000  0.000  0.630
   3.134   -12.555  0.612  0.000  0.016  0.000  0.000  0.000  0.000  0.000  0.000  0.630
   3.154   -12.563  0.612  0.000  0.016  0.000  0.000  0.000  0.000  0.000  0.000  0.630
   3.173   -12.569  0.612  0.000  0.017  0.000  0.000  0.000  0.000  0.000  0.000  0.629
   3.193   -12.573  0.612  0.000  0.017  0.000  0.000  0.000  0.000  0.000  0.000  0.629
   3.212   -12.574  0.612  0.000  0.018  0.000  0.000  0.000  0.000  0.000  0.000  0.630
# Band-Index:    2
   3.212   -12.574 -0.612  0.000 -0.018  0.000  0.000  0.000  0.000  0.000  0.000 -0.630
   3.193   -12.573 -0.612  0.000 -0.017  0.000  0.000  0.000  0.000  0.000  0.000 -0.629
   3.173   -12.569 -0.612  0.000 -0.017  0.000  0.000  0.000  0.000  0.000  0.000 -0.629
   3.154   -12.563 -0.612  0.000 -0.016  0.000  0.000  0.000  0.000  0.000  0.000 -0.630
   3.134   -12.555 -0.612  0.000 -0.016  0.000  0.000  0.000  0.000  0.000  0.000 -0.630
   3.115   -12.545 -0.613  0.000 -0.016  0.000  0.000  0.000  0.000  0.000  0.000 -0.630
   3.095   -12.532 -0.613  0.000 -0.016  0.000  0.000  0.000  0.000  0.000  0.000 -0.631
   3.076   -12.516 -0.613  0.000 -0.016  0.000  0.000  0.000  0.000  0.000  0.000 -0.631
   3.057   -12.499 -0.613 -0.002 -0.016  0.000  0.000  0.000  0.000  0.000  0.000 -0.631
   3.037   -12.479 -0.614 -0.002 -0.016  0.000  0.000  0.000  0.000  0.000  0.000 -0.633
   3.018   -12.457 -0.614 -0.002 -0.016  0.000  0.000  0.000  0.000  0.000  0.000 -0.633
   2.998   -12.433 -0.614 -0.002 -0.016 -0.001  0.000  0.000  0.000  0.000  0.000 -0.633
   2.979   -12.406 -0.616 -0.002 -0.016 -0.001  0.000  0.000  0.000  0.000  0.000 -0.635
   2.959   -12.378 -0.616 -0.004 -0.016 -0.001  0.000  0.000  0.000  0.000  0.000 -0.636
   2.940   -12.347 -0.616 -0.004 -0.016 -0.001  0.000  0.000  0.000  0.000  0.000 -0.637
   2.920   -12.314 -0.618 -0.004 -0.015 -0.001  0.000  0.000  0.000  0.000  0.000 -0.639
   2.901   -12.279 -0.618 -0.004 -0.015 -0.002  0.000  0.000  0.000  0.000  0.000 -0.640
   2.881   -12.242 -0.619 -0.006 -0.014 -0.002  0.000  0.000  0.000  0.000  0.000 -0.642
   2.862   -12.203 -0.619 -0.006 -0.014 -0.002  0.000  0.000  0.000  0.000  0.000 -0.642
   2.842   -12.162 -0.619 -0.006 -0.014 -0.002  0.000  0.000  0.000  0.000  0.000 -0.644
   2.823   -12.119 -0.621 -0.006 -0.014 -0.002  0.000  0.000  0.000  0.000  0.000 -0.646
   2.803   -12.074 -0.623 -0.008 -0.014 -0.003  0.000  0.000  0.000  0.000  0.000 -0.647
   2.784   -12.028 -0.623 -0.008 -0.013 -0.003  0.000  0.000  0.000  0.000  0.000 -0.649
